0.316113
0.388406
0.470819
0.554678
0.598054
0.613958
0.621188
0.619742
0.608175
0.590825
0.57492
0.556124
0.54022
0.525761
0.517086
0.508411
0.502628
0.496844
0.493953
0.488169
0.479494
0.472265
0.465036
0.459252
0.453469
0.447686
0.441902
0.436119
0.42889
0.423106
0.417323
0.412985
0.408648
0.405756
0.402864
0.399973
0.398527
0.394189
0.385514
0.382622
0.389852
0.410094
0.466482
0.538774
0.638538
0.761435
0.88144
0.969637
1
0.988433
0.953733
0.862644
0.749868
0.622633
0.489615
0.358043
0.240929
0.171528
0.149841
0.171528
0.207675
0.249604
0.2684
0.277075
0.282859
0.287196
0.290088
0.294426
0.297317
0.300209
0.304547
0.307438
0.31033
0.313222
0.314667
0.316113
0.319005
0.320451
0.321897
0.321897
0.321897
0.323343
0.324788
0.326234
0.32768
0.329126
0.329126
0.330572
0.330572
0.330572
0.330572
0.329126
0.329126
0.329126
0.329126
0.329126
0.330572
0.332018
0.333464
0.334909
0.337801
0.340693
0.34503
0.346476
0.349368
0.350814
0.353705
0.356597
0.359489
0.363826
0.366718
0.36961
0.372501
0.375393
0.378285
0.378285
0.376839
0.373947
0.371056
0.365272
0.358043
0.350814
0.342139
0.321897
0.278521
0.245267
0.225025
0.20912
0.194662
0.180204
0.164299
0.146949
0.126707
0.109357
0.0948984
0.0789941
0.0616439
0.0428478
0.0327269
0.0254976
0.0182684
0.012485
0.00670161
0.000918211
-0.00341934
-0.00775688
-0.0106486
-0.0135403
-0.016432
-0.0178778
-0.0193237
-0.0207695
-0.0222154
-0.0236612
-0.0265529
-0.0308905
-0.0337822
-0.0366739
-0.0366739
-0.0337822
-0.0279988
-0.0193237
-0.0106486
0.000918211
0.0139309
0.0327269
0.0457395
0.0515229
0.0558605
0.0573063
0.060198
0.0616439
0.0630897
0.0645356
0.0659814
0.0659814
0.0645356
0.0630897
0.060198
0.0573063
0.0529688
0.0471854
0.041402
0.0370644
0.0327269
0.0298352
0.0298352
0.0283893
0.0283893
0.0269435
0.0254976
0.0240518
0.0226059
0.0211601
0.0182684
0.0153767
0.0139309
0.012485
0.0110392
0.00814746
0.00525576
0.00236406
-0.000527639
-0.00341934
-0.00631104
-0.00920273
-0.0106486
-0.0135403
-0.016432
-0.0193237
-0.0222154
-0.0236612
-0.0265529
-0.0294446
-0.0323363
-0.035228
-0.0395656
-0.0439031
-0.0482407
-0.0525782
-0.0554699
-0.0569158
-0.0598075
-0.0626992
-0.0655909
-0.0699284
-0.0757118
-0.0814952
-0.0872786
-0.093062
-0.0973995
-0.100291
-0.101737
-0.101737
-0.100291
-0.0959537
-0.0901703
-0.0814952
-0.0713742
-0.0598075
-0.0366739
0.000918211
0.0558605
0.13249
0.239483
0.353705
0.42889
0.456361
0.454915
0.424552
0.339247
0.229362
0.119478
0.012485
-0.0916161
-0.19138
-0.246322
-0.265118
-0.24343
-0.207284
-0.161017
-0.137883
-0.129208
-0.123425
-0.119087
-0.11475
-0.111858
-0.106075
-0.100291
-0.093062
-0.0887244
-0.082941
-0.0786035
-0.0742659
-0.0699284
-0.0655909
-0.0626992
-0.0583616
-0.0554699
-0.0511324
-0.0467948
-0.0424573
-0.0381197
-0.0337822
-0.0294446
-0.0251071
-0.0207695
-0.0178778
-0.0149861
-0.0120944
-0.0106486
-0.00631104
-0.000527639
0.00525576
0.012485
0.0197143
0.0269435
0.0356186
0.0442937
0.0529688
0.0630897
0.0717648
0.0833316
0.0948984
0.106465
0.118032
0.126707
0.13249
0.138274
0.144057
0.149841
0.154178
0.15707
0.15707
0.15707
0.155624
0.151287
0.144057
0.136828
0.126707
0.116586
0.105019
0.089115
0.0732107
0.060198
0.0515229
0.0428478
0.0327269
0.0211601
0.00814746
-0.00341934
-0.0149861
-0.0294446
-0.0496865
-0.0728201
-0.0973995
-0.119087
-0.126317
-0.129208
-0.130654
-0.1321
-0.1321
-0.133546
-0.134992
-0.134992
-0.136437
-0.137883
-0.137883
-0.136437
-0.133546
-0.1321
-0.130654
-0.127762
-0.126317
-0.123425
-0.120533
-0.117641
-0.116196
-0.11475
-0.113304
-0.111858
-0.108966
-0.106075
-0.104629
-0.104629
-0.104629
-0.104629
-0.104629
-0.104629
-0.104629
-0.104629
-0.103183
-0.103183
-0.101737
-0.100291
-0.0988454
-0.0973995
-0.0945078
-0.0916161
-0.0901703
-0.0872786
-0.0843869
-0.0800493
-0.0771576
-0.0757118
-0.0713742
-0.0684826
-0.064145
-0.0612533
-0.0569158
-0.0554699
-0.0540241
-0.0525782
-0.0511324
-0.0496865
-0.0482407
-0.0482407
-0.0482407
-0.0496865
-0.0482407
-0.0467948
-0.045349
-0.0439031
-0.0439031
-0.0424573
-0.0410114
-0.0395656
-0.0381197
-0.0366739
-0.035228
-0.0337822
-0.0323363
-0.0294446
-0.0251071
-0.0178778
-0.0120944
-0.0106486
-0.0120944
-0.0222154
-0.0337822
-0.0439031
-0.0511324
-0.0569158
-0.064145
-0.0713742
-0.0771576
-0.082941
-0.0872786
-0.0916161
-0.0959537
-0.100291
-0.103183
-0.106075
-0.10752
-0.110412
-0.111858
-0.113304
-0.117641
-0.120533
-0.126317
-0.136437
-0.145113
-0.143667
-0.137883
-0.124871
-0.0858327
-0.0222154
0.0616439
0.177312
0.303101
0.397081
0.430335
0.430335
0.402864
0.324788
0.212012
0.0920067
-0.0265529
-0.142221
-0.244876
-0.305602
-0.32729
-0.325844
-0.298373
-0.254997
-0.201501
-0.169692
-0.150896
-0.136437
-0.120533
-0.108966
-0.101737
-0.0959537
-0.0916161
-0.0887244
-0.0872786
-0.0843869
-0.082941
-0.0800493
-0.0786035
-0.0742659
-0.0699284
-0.0670367
-0.0655909
-0.0626992
-0.0612533
-0.0598075
-0.0569158
-0.0540241
-0.0511324
-0.0467948
-0.0439031
-0.0395656
-0.0337822
-0.0294446
-0.0236612
-0.0178778
-0.0135403
-0.0120944
-0.00775688
-0.00341934
-0.000527639
0.00236406
0.00670161
0.012485
0.0226059
0.0385103
0.0587522
0.0818858
0.0934526
0.100682
0.107911
0.116586
0.12237
0.128153
0.13249
0.135382
0.135382
0.135382
0.135382
0.13249
0.128153
0.123815
0.118032
0.110803
0.103574
0.0948984
0.0847775
0.0645356
0.0471854
0.0341727
0.0226059
0.0110392
0.000918211
-0.00920273
-0.0178778
-0.0265529
-0.0366739
-0.0467948
-0.0569158
-0.064145
-0.0699284
-0.0742659
-0.0786035
-0.082941
-0.0858327
-0.0887244
-0.0916161
-0.0959537
-0.0973995
-0.100291
-0.100291
-0.100291
-0.100291
-0.0988454
-0.0973995
-0.0959537
-0.0945078
-0.093062
-0.0901703
-0.0872786
-0.0843869
-0.0814952
-0.0800493
-0.0771576
-0.0742659
-0.0699284
-0.0670367
-0.0626992
-0.0598075
-0.0583616
-0.0569158
-0.0554699
-0.0540241
-0.0525782
-0.0511324
-0.0496865
-0.0482407
-0.0482407
-0.0467948
-0.045349
-0.0439031
-0.0424573
-0.0424573
-0.0424573
-0.0439031
-0.0439031
-0.045349
-0.0467948
-0.0496865
-0.0511324
-0.0525782
-0.0525782
-0.0540241
-0.0554699
-0.0554699
-0.0569158
-0.0569158
-0.0569158
-0.0583616
-0.0583616
-0.0598075
-0.0612533
-0.0626992
-0.0626992
-0.064145
-0.064145
-0.0655909
-0.0655909
-0.0655909
-0.0655909
-0.064145
-0.0626992
-0.0598075
-0.0583616
-0.0569158
-0.0540241
-0.0525782
-0.0496865
-0.045349
-0.0410114
-0.035228
-0.0279988
-0.0222154
-0.016432
-0.0120944
-0.00486519
0.000918211
0.00959331
0.0168226
0.0211601
0.0211601
0.0153767
0.00670161
-0.00486519
-0.0149861
-0.0294446
-0.0439031
-0.0598075
-0.0757118
-0.0858327
-0.0945078
-0.101737
-0.10752
-0.110412
-0.111858
-0.110412
-0.108966
-0.106075
-0.104629
-0.100291
-0.0973995
-0.0945078
-0.093062
-0.0916161
-0.0887244
-0.0843869
-0.0800493
-0.0757118
-0.0728201
-0.0699284
-0.0670367
-0.064145
-0.0598075
-0.0554699
-0.0496865
-0.0149861
0.060198
0.164299
0.291534
0.431781
0.567691
0.65155
0.654442
0.583595
0.382622
0.112249
-0.156679
-0.369219
-0.458862
-0.460308
-0.382232
-0.272347
-0.188488
-0.140775
-0.119087
-0.111858
-0.106075
-0.100291
-0.0959537
-0.0916161
-0.0887244
-0.0858327
-0.0843869
-0.0814952
-0.0786035
-0.0757118
-0.0742659
-0.0742659
-0.0728201
-0.0713742
-0.0699284
-0.0670367
-0.064145
-0.0598075
-0.0540241
-0.0424573
-0.0308905
-0.0207695
-0.0120944
-0.00775688
-0.00341934
0.000918211
0.00380991
0.00814746
0.012485
0.0153767
0.0211601
0.0254976
0.031281
0.0356186
0.041402
0.0457395
0.0500771
0.0558605
0.0616439
0.0688731
0.0761024
0.0833316
0.089115
0.0963443
0.102128
0.109357
0.11514
0.120924
0.125261
0.131045
0.138274
0.144057
0.149841
0.154178
0.154178
0.154178
0.151287
0.146949
0.141166
0.133936
0.126707
0.118032
0.107911
0.0948984
0.0833316
0.0717648
0.0587522
0.0428478
0.0197143
-0.00631104
-0.0279988
-0.0496865
-0.0569158
-0.0598075
-0.0598075
-0.0612533
-0.0612533
-0.0626992
-0.0626992
-0.064145
-0.064145
-0.0655909
-0.0670367
-0.0684826
-0.0684826
-0.0684826
-0.0670367
-0.0670367
-0.0684826
-0.0684826
-0.0699284
-0.0699284
-0.0699284
-0.0699284
-0.0684826
-0.0684826
-0.0670367
-0.0670367
-0.0655909
-0.064145
-0.064145
-0.0626992
-0.0626992
-0.0612533
-0.0598075
-0.0583616
-0.0569158
-0.0554699
-0.0525782
-0.0496865
-0.0467948
-0.045349
-0.0439031
-0.0439031
-0.0439031
-0.0439031
-0.0439031
-0.0439031
-0.0439031
-0.0439031
-0.0439031
-0.0439031
-0.0439031
-0.0439031
-0.045349
-0.045349
-0.045349
-0.045349
-0.045349
-0.0467948
-0.0467948
-0.0467948
-0.0467948
-0.0467948
-0.0467948
-0.045349
-0.045349
-0.045349
-0.045349
-0.0467948
-0.0467948
-0.0482407
-0.0496865
-0.0511324
-0.0525782
-0.0540241
-0.0554699
-0.0554699
-0.0554699
-0.0569158
-0.0626992
-0.0655909
-0.0655909
-0.0670367
-0.0684826
-0.0684826
-0.0713742
-0.0728201
-0.0757118
-0.0771576
-0.0786035
-0.0800493
-0.0800493
-0.0800493
-0.0800493
-0.0786035
-0.0786035
-0.0757118
-0.0728201
-0.0699284
-0.0684826
-0.0655909
-0.0626992
-0.0583616
-0.0540241
-0.0496865
-0.0439031
-0.0395656
-0.0308905
-0.0222154
-0.0135403
-0.00775688
-0.00341934
-0.000527639
-0.000527639
0.000918211
0.000918211
0.00236406
0.00525576
0.00814746
0.00814746
0.000918211
-0.0120944
-0.0251071
-0.0308905
-0.0337822
-0.0381197
-0.0410114
-0.045349
-0.0467948
-0.0496865
-0.0511324
-0.0540241
-0.0554699
-0.0569158
-0.0598075
-0.0612533
-0.0612533
-0.0626992
-0.0626992
-0.0626992
-0.0626992
-0.0626992
-0.0626992
-0.0626992
-0.0655909
-0.0670367
-0.0713742
-0.0771576
-0.0887244
-0.0945078
-0.0901703
-0.0742659
-0.0294446
0.0370644
0.128153
0.246713
0.394189
0.559016
0.716614
0.809148
0.809148
0.715168
0.475157
0.167191
-0.123425
-0.324398
-0.366327
-0.356207
-0.257889
-0.161017
-0.108966
-0.093062
-0.0843869
-0.0786035
-0.0771576
-0.0786035
-0.0800493
-0.082941
-0.0843869
-0.0872786
-0.0916161
-0.0973995
-0.0988454
-0.0945078
-0.0800493
-0.0655909
-0.0583616
-0.0525782
-0.0482407
-0.0439031
-0.0381197
-0.0337822
-0.0279988
-0.0222154
-0.0178778
-0.0149861
-0.0120944
-0.0106486
-0.00631104
-0.00341934
-0.000527639
0.00236406
0.00814746
0.0168226
0.0269435
0.0370644
0.0500771
0.0616439
0.0688731
0.0761024
0.0818858
0.089115
0.0948984
0.102128
0.107911
0.11514
0.120924
0.126707
0.133936
0.141166
0.146949
0.151287
0.158516
0.165745
0.172974
0.178758
0.184541
0.187433
0.187433
0.184541
0.180204
0.17442
0.167191
0.159962
0.152732
0.141166
0.126707
0.113694
0.100682
0.0876692
0.0717648
0.0558605
0.0385103
0.0240518
0.012485
0.00380991
-0.00486519
-0.0120944
-0.0178778
-0.0236612
-0.0265529
-0.0294446
-0.0323363
-0.035228
-0.0366739
-0.0395656
-0.0424573
-0.0424573
-0.0424573
-0.0424573
-0.0410114
-0.0395656
-0.0395656
-0.0395656
-0.0381197
-0.0366739
-0.035228
-0.0337822
-0.0337822
-0.0366739
-0.0410114
-0.0439031
-0.045349
-0.0467948
-0.0482407
-0.0511324
-0.0525782
-0.0540241
-0.0554699
-0.0554699
-0.0554699
-0.0540241
-0.0540241
-0.0525782
-0.0525782
-0.0511324
-0.0511324
-0.0496865
-0.0496865
-0.0482407
-0.0467948
-0.045349
-0.0424573
-0.0395656
-0.0424573
-0.0467948
-0.0511324
-0.0540241
-0.0554699
-0.0569158
-0.0583616
-0.0598075
-0.0612533
-0.0626992
-0.0626992
-0.064145
-0.064145
-0.064145
-0.0626992
-0.0626992
-0.0626992
-0.0626992
-0.0626992
-0.0626992
-0.0612533
-0.0598075
-0.0583616
-0.0583616
-0.0583616
-0.0598075
-0.0598075
-0.0598075
-0.0598075
-0.0598075
-0.0612533
-0.0626992
-0.064145
-0.064145
-0.064145
-0.064145
-0.064145
-0.0655909
-0.0655909
-0.0670367
-0.0655909
-0.0655909
-0.0655909
-0.0655909
-0.0684826
-0.0699284
-0.0699284
-0.0684826
-0.0655909
-0.0626992
-0.0598075
-0.0569158
-0.0554699
-0.0525782
-0.0511324
-0.0496865
-0.0496865
-0.0496865
-0.0496865
-0.0482407
-0.0467948
-0.0439031
-0.0410114
-0.0381197
-0.0366739
-0.035228
-0.0323363
-0.0294446
-0.0265529
-0.0251071
-0.0222154
-0.0207695
-0.0193237
-0.0149861
-0.0120944
-0.00631104
-0.00341934
-0.000527639
0.000918211
0.000918211
-0.000527639
-0.00341934
-0.00775688
-0.0120944
-0.0193237
-0.0251071
-0.0308905
-0.0337822
-0.0381197
-0.0424573
-0.0482407
-0.0525782
-0.0569158
-0.0598075
-0.064145
-0.0670367
-0.0699284
-0.0728201
-0.0757118
-0.0757118
-0.0771576
-0.0757118
-0.0757118
-0.0771576
-0.0771576
-0.0771576
-0.0786035
-0.0800493
-0.0814952
-0.0872786
-0.0858327
-0.0684826
-0.0207695
0.0486312
0.152732
0.291534
0.457807
0.631308
0.78746
0.853969
0.840957
0.703601
0.433227
0.106465
-0.187042
-0.376448
-0.406811
-0.395244
-0.305602
-0.214513
-0.148004
-0.127762
-0.116196
-0.108966
-0.103183
-0.0973995
-0.093062
-0.0901703
-0.0858327
-0.0814952
-0.0771576
-0.0728201
-0.0670367
-0.0626992
-0.0583616
-0.0540241
-0.0496865
-0.0467948
-0.0424573
-0.0381197
-0.0337822
-0.0294446
-0.0265529
-0.0251071
-0.0236612
-0.0236612
-0.0207695
-0.0193237
-0.016432
-0.0149861
-0.0120944
-0.00920273
-0.00341934
0.000918211
0.00814746
0.012485
0.0182684
0.0240518
0.0298352
0.0399561
0.0500771
0.0616439
0.0717648
0.0804399
0.0876692
0.0948984
0.102128
0.106465
0.109357
0.112249
0.113694
0.11514
0.116586
0.116586
0.118032
0.118032
0.119478
0.119478
0.119478
0.120924
0.120924
0.119478
0.118032
0.116586
0.113694
0.109357
0.103574
0.099236
0.0920067
0.0789941
0.0515229
0.0341727
0.0240518
0.0139309
0.00525576
-0.00486519
-0.016432
-0.0323363
-0.0424573
-0.0482407
-0.0525782
-0.0540241
-0.0569158
-0.0583616
-0.0598075
-0.0598075
-0.0598075
-0.0583616
-0.0540241
-0.0496865
-0.045349
-0.0410114
-0.0366739
-0.0323363
-0.0251071
-0.0207695
-0.0178778
-0.016432
-0.016432
-0.016432
-0.016432
-0.016432
-0.016432
-0.016432
-0.016432
-0.016432
-0.0178778
-0.0178778
-0.016432
-0.016432
-0.0149861
-0.0149861
-0.0149861
-0.0149861
-0.0149861
-0.0135403
-0.0135403
-0.0120944
-0.0120944
-0.0106486
-0.00631104
0.000918211
0.000918211
-0.0106486
-0.0178778
-0.0251071
-0.0294446
-0.0323363
-0.0323363
-0.0308905
-0.0308905
-0.0323363
-0.0337822
-0.035228
-0.035228
-0.0337822
-0.0323363
-0.0308905
-0.0279988
-0.0265529
-0.0251071
-0.0222154
-0.0207695
-0.0178778
-0.0178778
-0.0178778
-0.0178778
-0.0193237
-0.0222154
-0.0251071
-0.0294446
-0.035228
-0.0395656
-0.0439031
-0.0467948
-0.0540241
-0.0612533
-0.0670367
-0.0684826
-0.0670367
-0.0626992
-0.0583616
-0.0540241
-0.0525782
-0.0496865
-0.0467948
-0.0424573
-0.0395656
-0.0381197
-0.0381197
-0.0381197
-0.0395656
-0.0410114
-0.0439031
-0.045349
-0.0467948
-0.0511324
-0.0540241
-0.0554699
-0.0540241
-0.0482407
-0.0395656
-0.0323363
-0.0294446
-0.0251071
-0.0222154
-0.0178778
-0.0149861
-0.0120944
-0.0106486
-0.00920273
-0.00631104
-0.00486519
-0.00197349
-0.00197349
-0.00197349
-0.00341934
-0.00486519
-0.00775688
-0.00920273
-0.0120944
-0.0135403
-0.0178778
-0.0207695
-0.0236612
-0.0251071
-0.0265529
-0.0279988
-0.0294446
-0.0308905
-0.0323363
-0.0337822
-0.035228
-0.0381197
-0.0395656
-0.0424573
-0.045349
-0.0482407
-0.0496865
-0.0511324
-0.0525782
-0.0540241
-0.0554699
-0.0583616
-0.0612533
-0.0655909
-0.0713742
-0.0786035
-0.082941
-0.0872786
-0.0916161
-0.0959537
-0.101737
-0.104629
-0.0988454
-0.082941
-0.035228
0.0399561
0.146949
0.294426
0.467927
0.637092
0.739747
0.744085
0.667455
0.452023
0.165745
-0.121979
-0.347531
-0.440066
-0.441512
-0.359098
-0.249214
-0.17403
-0.148004
-0.139329
-0.133546
-0.124871
-0.110412
-0.103183
-0.0988454
-0.0945078
-0.0901703
-0.0887244
-0.0858327
-0.082941
-0.0814952
-0.0800493
-0.0771576
-0.0757118
-0.0742659
-0.0728201
-0.0713742
-0.0699284
-0.0684826
-0.064145
-0.0569158
-0.0467948
-0.0366739
-0.0308905
-0.0265529
-0.0222154
-0.0178778
-0.0149861
-0.0120944
-0.00920273
-0.00631104
-0.00341934
0.000918211
0.00525576
0.00959331
0.0153767
0.0240518
0.0341727
0.0428478
0.0500771
0.0573063
0.0616439
0.0659814
0.070319
0.0746565
0.0789941
0.0833316
0.0876692
0.0905609
0.0934526
0.0977901
0.100682
0.103574
0.105019
0.107911
0.107911
0.107911
0.107911
0.107911
0.105019
0.102128
0.0977901
0.0934526
0.089115
0.0789941
0.0616439
0.0486312
0.031281
0.00814746
-0.0120944
-0.0265529
-0.0366739
-0.0410114
-0.045349
-0.0482407
-0.0511324
-0.0525782
-0.0554699
-0.0583616
-0.0612533
-0.0626992
-0.0655909
-0.0670367
-0.0684826
-0.0699284
-0.0728201
-0.0742659
-0.0771576
-0.0800493
-0.0814952
-0.082941
-0.0843869
-0.0858327
-0.0858327
-0.0872786
-0.0858327
-0.0858327
-0.0843869
-0.082941
-0.0814952
-0.0800493
-0.0786035
-0.0771576
-0.0757118
-0.0728201
-0.0713742
-0.0684826
-0.0655909
-0.0626992
-0.0569158
-0.0511324
-0.0467948
-0.0439031
-0.0410114
-0.0395656
-0.0381197
-0.0366739
-0.0366739
-0.035228
-0.0337822
-0.0323363
-0.0323363
-0.0337822
-0.035228
-0.0366739
-0.0381197
-0.0410114
-0.0424573
-0.0439031
-0.0467948
-0.0496865
-0.0511324
-0.0511324
-0.0511324
-0.0511324
-0.0511324
-0.0511324
-0.0511324
-0.0496865
-0.0482407
-0.0467948
-0.045349
-0.0439031
-0.0439031
-0.0424573
-0.0395656
-0.0366739
-0.035228
-0.035228
-0.0366739
-0.0395656
-0.0439031
-0.0467948
-0.0511324
-0.0554699
-0.0554699
-0.0511324
-0.0467948
-0.0439031
-0.0410114
-0.0381197
-0.0366739
-0.035228
-0.0337822
-0.0323363
-0.0308905
-0.0308905
-0.0308905
-0.0323363
-0.0337822
-0.0337822
-0.035228
-0.035228
-0.0366739
-0.0366739
-0.0381197
-0.0381197
-0.0337822
-0.0279988
-0.0222154
-0.0135403
-0.00341934
0.00236406
0.00525576
0.00670161
0.00959331
0.0110392
0.0110392
0.0110392
0.012485
0.012485
0.012485
0.0110392
0.00959331
0.00670161
0.00380991
0.000918211
-0.00197349
-0.00631104
-0.0120944
-0.0222154
-0.035228
-0.0395656
-0.0424573
-0.045349
-0.0482407
-0.0511324
-0.0540241
-0.0554699
-0.0569158
-0.0569158
-0.0569158
-0.0569158
-0.0569158
-0.0554699
-0.0525782
-0.0511324
-0.0482407
-0.045349
-0.0424573
-0.0279988
0.00236406
0.0500771
0.12237
0.225025
0.358043
0.506965
0.635646
0.705047
0.674684
0.525761
0.277075
-0.0193237
-0.288252
-0.434282
-0.450187
-0.390907
-0.26801
-0.172584
-0.134992
-0.123425
-0.11475
-0.108966
-0.0872786
-0.0612533
-0.0525782
-0.0482407
-0.0496865
-0.0569158
-0.0612533
-0.0670367
-0.0713742
-0.0728201
-0.0699284
-0.064145
-0.0554699
-0.0467948
-0.035228
-0.0265529
-0.0207695
-0.0149861
-0.0120944
-0.00775688
-0.00197349
0.00380991
0.012485
0.0197143
0.0283893
0.0341727
0.0399561
0.0442937
0.0471854
0.0515229
0.0558605
0.060198
0.0645356
0.0688731
0.0761024
0.0833316
0.0934526
0.100682
0.105019
0.109357
0.110803
0.112249
0.11514
0.119478
0.125261
0.13249
0.138274
0.144057
0.149841
0.155624
0.159962
0.161407
0.161407
0.158516
0.152732
0.145503
0.138274
0.129599
0.11514
0.103574
0.0963443
0.0833316
0.0645356
0.0529688
0.0471854
0.0428478
0.0356186
0.0283893
0.0211601
0.0139309
0.00525576
-0.00341934
-0.0106486
-0.0178778
-0.0323363
-0.0540241
-0.0728201
-0.0843869
-0.0945078
-0.100291
-0.10752
-0.111858
-0.110412
-0.106075
-0.0988454
-0.0945078
-0.0916161
-0.0872786
-0.0843869
-0.082941
-0.0800493
-0.0786035
-0.0771576
-0.0757118
-0.0757118
-0.0742659
-0.0742659
-0.0728201
-0.0713742
-0.0699284
-0.0670367
-0.0655909
-0.0670367
-0.0699284
-0.0742659
-0.0786035
-0.082941
-0.0858327
-0.0814952
-0.0728201
-0.0699284
-0.0670367
-0.0655909
-0.0626992
-0.0612533
-0.0598075
-0.0598075
-0.0583616
-0.0569158
-0.0569158
-0.0569158
-0.0569158
-0.0569158
-0.0569158
-0.0583616
-0.0583616
-0.0598075
-0.0612533
-0.0626992
-0.0670367
-0.0684826
-0.064145
-0.0612533
-0.0598075
-0.0569158
-0.0554699
-0.0554699
-0.0554699
-0.0554699
-0.0569158
-0.0583616
-0.0598075
-0.0612533
-0.0598075
-0.0583616
-0.0569158
-0.0554699
-0.0540241
-0.0525782
-0.0540241
-0.0554699
-0.0569158
-0.0583616
-0.0583616
-0.0598075
-0.0612533
-0.0612533
-0.0626992
-0.0626992
-0.064145
-0.0626992
-0.0598075
-0.0569158
-0.0525782
-0.0496865
-0.0467948
-0.0439031
-0.0424573
-0.0395656
-0.0381197
-0.0366739
-0.035228
-0.0337822
-0.0308905
-0.0294446
-0.0265529
-0.0251071
-0.0236612
-0.0222154
-0.0207695
-0.0193237
-0.0178778
-0.016432
-0.0135403
-0.0120944
-0.00775688
-0.000527639
0.00814746
0.0139309
0.0197143
0.0240518
0.0298352
0.0341727
0.0341727
0.0327269
0.0269435
0.0211601
0.012485
-0.000527639
-0.0106486
-0.0178778
-0.0251071
-0.0323363
-0.0366739
-0.0410114
-0.0482407
-0.0482407
-0.0439031
-0.0410114
-0.0381197
-0.0366739
-0.035228
-0.0337822
-0.035228
-0.0366739
-0.0381197
-0.0395656
-0.0424573
-0.0467948
-0.0482407
-0.045349
-0.0366739
-0.0251071
-0.0106486
0.0110392
0.0471854
0.100682
0.17442
0.277075
0.411539
0.567691
0.716614
0.778785
0.764327
0.629863
0.375393
0.0761024
-0.192826
-0.369219
-0.414041
-0.34464
-0.223188
-0.113304
-0.0699284
-0.0569158
-0.064145
-0.0713742
-0.0757118
-0.0786035
-0.0786035
-0.0742659
-0.0684826
-0.0583616
-0.0381197
-0.0279988
-0.0236612
-0.0207695
-0.0178778
-0.0135403
-0.0120944
-0.00775688
-0.00631104
-0.00341934
-0.000527639
0.00380991
0.00670161
0.00959331
0.0110392
0.0139309
0.0168226
0.0211601
0.0240518
0.0269435
0.0298352
0.0327269
0.0356186
0.0385103
0.041402
0.0442937
0.0471854
0.0500771
0.0529688
0.0573063
0.0616439
0.0645356
0.0688731
0.0717648
0.0761024
0.0804399
0.089115
0.103574
0.119478
0.13249
0.142611
0.149841
0.154178
0.158516
0.161407
0.165745
0.168637
0.171528
0.171528
0.171528
0.167191
0.161407
0.154178
0.13972
0.113694
0.089115
0.0659814
0.0500771
0.041402
0.0327269
0.0269435
0.0211601
0.0168226
0.0139309
0.00959331
0.00236406
-0.00341934
-0.0120944
-0.0207695
-0.0323363
-0.0439031
-0.0540241
-0.0598075
-0.0626992
-0.0655909
-0.0684826
-0.0713742
-0.0757118
-0.0786035
-0.0800493
-0.0814952
-0.082941
-0.082941
-0.0814952
-0.0800493
-0.0786035
-0.0771576
-0.0742659
-0.0713742
-0.0684826
-0.0670367
-0.064145
-0.0612533
-0.0583616
-0.0525782
-0.045349
-0.0410114
-0.0410114
-0.0410114
-0.0439031
-0.045349
-0.0482407
-0.0525782
-0.0554699
-0.0525782
-0.0482407
-0.045349
-0.0439031
-0.0424573
-0.0395656
-0.0395656
-0.0381197
-0.0366739
-0.035228
-0.035228
-0.035228
-0.0366739
-0.0381197
-0.0395656
-0.0424573
-0.0439031
-0.045349
-0.0467948
-0.0482407
-0.0496865
-0.0511324
-0.0525782
-0.0540241
-0.0569158
-0.0583616
-0.0583616
-0.0554699
-0.0511324
-0.0467948
-0.0439031
-0.0424573
-0.0395656
-0.0366739
-0.035228
-0.0323363
-0.0323363
-0.0323363
-0.035228
-0.0381197
-0.0410114
-0.0424573
-0.0439031
-0.0467948
-0.0482407
-0.0511324
-0.0525782
-0.0540241
-0.0540241
-0.0540241
-0.0540241
-0.0540241
-0.0540241
-0.0525782
-0.0511324
-0.0482407
-0.045349
-0.0439031
-0.0424573
-0.0410114
-0.0395656
-0.0366739
-0.0337822
-0.0308905
-0.0294446
-0.0265529
-0.0236612
-0.0193237
-0.0149861
-0.0106486
-0.000527639
0.0168226
0.0269435
0.0327269
0.0370644
0.041402
0.0442937
0.0442937
0.0399561
0.0341727
0.0254976
0.0153767
-0.000527639
-0.0178778
-0.0323363
-0.045349
-0.0540241
-0.0598075
-0.0612533
-0.0626992
-0.064145
-0.0655909
-0.0670367
-0.0670367
-0.0670367
-0.0670367
-0.064145
-0.0598075
-0.0540241
-0.0482407
-0.0424573
-0.035228
-0.0279988
-0.0236612
-0.0222154
-0.0236612
-0.0265529
-0.0308905
-0.0410114
-0.0381197
-0.00486519
0.0645356
0.162853
0.288642
0.437565
0.586487
0.709384
0.749868
0.673238
0.476603
0.207675
-0.0699284
-0.292589
-0.386569
-0.388015
-0.304156
-0.189934
-0.129208
-0.110412
-0.100291
-0.0959537
-0.093062
-0.0916161
-0.0901703
-0.0887244
-0.0872786
-0.0843869
-0.082941
-0.0800493
-0.0742659
-0.0670367
-0.0569158
-0.0439031
-0.035228
-0.0279988
-0.0251071
-0.0222154
-0.0207695
-0.0193237
-0.016432
-0.0135403
-0.0120944
-0.00775688
-0.00486519
-0.000527639
0.00380991
0.00814746
0.0110392
0.0139309
0.0182684
0.0226059
0.0269435
0.031281
0.0370644
0.0428478
0.0486312
0.0544146
0.0630897
0.0761024
0.0876692
0.0963443
0.112249
0.131045
0.138274
0.141166
0.144057
0.146949
0.149841
0.151287
0.152732
0.154178
0.155624
0.155624
0.155624
0.155624
0.154178
0.151287
0.148395
0.145503
0.142611
0.13972
0.136828
0.13249
0.123815
0.106465
0.0920067
0.0789941
0.0659814
0.0515229
0.0298352
0.00525576
-0.0106486
-0.0207695
-0.0308905
-0.0424573
-0.0511324
-0.0583616
-0.0655909
-0.0713742
-0.0757118
-0.0800493
-0.0843869
-0.0872786
-0.0887244
-0.0887244
-0.0858327
-0.0814952
-0.0757118
-0.0713742
-0.064145
-0.0583616
-0.0554699
-0.0540241
-0.0554699
-0.0583616
-0.0612533
-0.0612533
-0.0626992
-0.0655909
-0.0670367
-0.0699284
-0.0713742
-0.0728201
-0.0742659
-0.0742659
-0.0742659
-0.0742659
-0.0742659
-0.0728201
-0.0699284
-0.0670367
-0.064145
-0.0598075
-0.0583616
-0.0554699
-0.0540241
-0.0511324
-0.0496865
-0.0467948
-0.0439031
-0.0424573
-0.0410114
-0.0410114
-0.0410114
-0.0410114
-0.0424573
-0.0439031
-0.0467948
-0.0511324
-0.0540241
-0.0583616
-0.0655909
-0.0713742
-0.0670367
-0.0598075
-0.0554699
-0.0511324
-0.0467948
-0.0424573
-0.0424573
-0.0424573
-0.0467948
-0.0496865
-0.0525782
-0.0569158
-0.0612533
-0.0655909
-0.0670367
-0.0655909
-0.0612533
-0.0554699
-0.0525782
-0.0496865
-0.0467948
-0.045349
-0.0439031
-0.0424573
-0.0424573
-0.0424573
-0.045349
-0.0482407
-0.0511324
-0.0525782
-0.0569158
-0.0598075
-0.0626992
-0.0626992
-0.0583616
-0.0525782
-0.045349
-0.035228
-0.0193237
-0.00631104
0.00380991
0.0110392
0.0168226
0.0211601
0.0226059
0.0211601
0.0168226
0.00959331
0.00236406
-0.00920273
-0.0251071
-0.0323363
-0.035228
-0.0381197
-0.0410114
-0.0424573
-0.045349
-0.0467948
-0.0482407
-0.0482407
-0.0496865
-0.0482407
-0.0482407
-0.0482407
-0.0467948
-0.0482407
-0.0482407
-0.0482407
-0.0496865
-0.0496865
-0.0496865
-0.0424573
-0.0366739
-0.0337822
-0.0308905
-0.0265529
-0.0236612
-0.0207695
-0.0149861
0.000918211
0.0457395
0.123815
0.245267
0.397081
0.550341
0.657334
0.666009
0.603837
0.405756
0.135382
-0.146558
-0.364882
-0.441512
-0.437174
-0.34464
-0.239093
-0.162463
-0.119087
-0.0973995
-0.0771576
-0.0554699
-0.045349
-0.0410114
-0.0395656
-0.0366739
-0.035228
-0.0337822
-0.0323363
-0.0308905
-0.0294446
-0.0279988
-0.0265529
-0.0251071
-0.0236612
-0.0222154
-0.0222154
-0.0207695
-0.0193237
-0.016432
-0.0135403
-0.00920273
0.00525576
0.0197143
0.031281
0.041402
0.0500771
0.0558605
0.060198
0.0630897
0.0645356
0.0659814
0.0674273
0.0674273
0.0688731
0.070319
0.0717648
0.0746565
0.0761024
0.0789941
0.0818858
0.0862233
0.0905609
0.100682
0.123815
0.141166
0.154178
0.168637
0.177312
0.184541
0.188879
0.193216
0.194662
0.194662
0.193216
0.190324
0.184541
0.177312
0.167191
0.151287
0.141166
0.129599
0.118032
0.105019
0.0876692
0.0645356
0.0486312
0.041402
0.0341727
0.0269435
0.0197143
0.00670161
-0.0120944
-0.0236612
-0.0294446
-0.0323363
-0.0381197
-0.0424573
-0.0482407
-0.0525782
-0.0569158
-0.0612533
-0.0655909
-0.0699284
-0.0713742
-0.0699284
-0.0670367
-0.0626992
-0.0598075
-0.0583616
-0.0569158
-0.0554699
-0.0540241
-0.0540241
-0.0525782
-0.0525782
-0.0511324
-0.0496865
-0.0482407
-0.045349
-0.0439031
-0.0410114
-0.0395656
-0.0381197
-0.0366739
-0.035228
-0.0337822
-0.0308905
-0.0294446
-0.0265529
-0.0236612
-0.0193237
-0.016432
-0.0135403
-0.0120944
-0.0120944
-0.0120944
-0.0120944
-0.0120944
-0.0120944
-0.0120944
-0.0135403
-0.0149861
-0.016432
-0.0178778
-0.0193237
-0.0207695
-0.0222154
-0.0236612
-0.0236612
-0.0236612
-0.0236612
-0.0222154
-0.0222154
-0.0207695
-0.0207695
-0.0207695
-0.0207695
-0.0193237
-0.0193237
-0.0193237
-0.0207695
-0.0207695
-0.0222154
-0.0236612
-0.0236612
-0.0236612
-0.0236612
-0.0236612
-0.0236612
-0.0236612
-0.0236612
-0.0222154
-0.0222154
-0.0236612
-0.0236612
-0.0236612
-0.0251071
-0.0265529
-0.0294446
-0.0236612
-0.0135403
-0.00631104
0.00236406
0.0110392
0.0153767
0.0182684
0.0211601
0.0240518
0.0269435
0.0298352
0.031281
0.031281
0.0254976
0.0182684
0.00814746
0.000918211
-0.00775688
-0.0149861
-0.0207695
-0.0265529
-0.0323363
-0.0424573
-0.0525782
-0.0525782
-0.0525782
-0.0525782
-0.0540241
-0.0540241
-0.0540241
-0.0525782
-0.0511324
-0.0511324
-0.0496865
-0.0496865
-0.0482407
-0.0467948
-0.045349
-0.045349
-0.0467948
-0.0482407
-0.0511324
-0.0525782
-0.0554699
-0.0612533
-0.0612533
-0.0482407
-0.0135403
0.0529688
0.154178
0.288642
0.439011
0.58215
0.652996
0.647213
0.544558
0.313222
0.0211601
-0.254997
-0.451633
-0.519587
-0.466091
-0.340302
-0.202947
-0.101737
-0.0757118
-0.0684826
-0.064145
-0.0583616
-0.0511324
-0.0439031
-0.0337822
-0.0222154
-0.0178778
-0.016432
-0.0149861
-0.0135403
-0.0135403
-0.0135403
-0.0135403
-0.0149861
-0.016432
-0.0193237
-0.0207695
-0.0236612
-0.0265529
-0.0265529
-0.0207695
-0.0135403
-0.00920273
-0.00486519
-0.000527639
0.00380991
0.00814746
0.012485
0.0182684
0.0226059
0.0269435
0.031281
0.0341727
0.0370644
0.041402
0.0442937
0.0486312
0.0515229
0.0544146
0.0558605
0.0587522
0.0630897
0.0674273
0.0775482
0.0920067
0.102128
0.106465
0.109357
0.112249
0.11514
0.118032
0.119478
0.120924
0.120924
0.120924
0.120924
0.119478
0.118032
0.11514
0.112249
0.107911
0.102128
0.0905609
0.0659814
0.0471854
0.0327269
0.0182684
0.00525576
-0.00920273
-0.0294446
-0.0424573
-0.0525782
-0.0598075
-0.0655909
-0.0699284
-0.0713742
-0.0742659
-0.0742659
-0.0757118
-0.0786035
-0.0800493
-0.082941
-0.0872786
-0.0901703
-0.093062
-0.0945078
-0.0959537
-0.0988454
-0.100291
-0.103183
-0.103183
-0.103183
-0.104629
-0.104629
-0.106075
-0.104629
-0.104629
-0.104629
-0.106075
-0.10752
-0.0973995
-0.082941
-0.0713742
-0.0598075
-0.0540241
-0.0496865
-0.0482407
-0.045349
-0.0439031
-0.0424573
-0.0424573
-0.0424573
-0.0439031
-0.0439031
-0.0439031
-0.0439031
-0.045349
-0.045349
-0.0467948
-0.0482407
-0.0496865
-0.0511324
-0.0525782
-0.0540241
-0.0569158
-0.0583616
-0.0583616
-0.0583616
-0.0583616
-0.0569158
-0.0554699
-0.0540241
-0.0511324
-0.0482407
-0.045349
-0.0424573
-0.0410114
-0.0395656
-0.0366739
-0.035228
-0.0323363
-0.0323363
-0.0323363
-0.035228
-0.0410114
-0.045349
-0.0496865
-0.0540241
-0.0583616
-0.0626992
-0.0670367
-0.0699284
-0.0728201
-0.0728201
-0.0713742
-0.0684826
-0.0655909
-0.0612533
-0.0583616
-0.0554699
-0.0540241
-0.0511324
-0.0496865
-0.0482407
-0.0467948
-0.0439031
-0.0424573
-0.0395656
-0.035228
-0.0323363
-0.0279988
-0.0251071
-0.0222154
-0.0193237
-0.016432
-0.0135403
-0.0120944
-0.00920273
-0.00341934
0.00236406
0.00959331
0.0139309
0.0139309
0.0139309
0.0110392
0.00814746
0.00380991
-0.00197349
-0.0106486
-0.0193237
-0.0279988
-0.0366739
-0.0424573
-0.0482407
-0.0540241
-0.0598075
-0.064145
-0.0699284
-0.0757118
-0.0800493
-0.082941
-0.0814952
-0.0757118
-0.0699284
-0.0626992
-0.0540241
-0.0482407
-0.045349
-0.0410114
-0.0366739
-0.0381197
-0.0569158
-0.0713742
-0.0872786
-0.0945078
-0.0901703
-0.0757118
-0.0381197
0.0269435
0.128153
0.259725
0.417323
0.57492
0.700709
0.751314
0.703601
0.543112
0.295871
0.00959331
-0.24343
-0.409703
-0.458862
-0.398136
-0.282468
-0.179813
-0.111858
-0.0959537
-0.0945078
-0.093062
-0.093062
-0.093062
-0.093062
-0.0901703
-0.0843869
-0.0786035
-0.0713742
-0.0655909
-0.0554699
-0.0482407
-0.0439031
-0.0395656
-0.0366739
-0.0337822
-0.0308905
-0.0279988
-0.0251071
-0.0222154
-0.0178778
-0.0135403
-0.0120944
-0.00775688
-0.00631104
-0.00341934
-0.000527639
0.00236406
0.00380991
0.00670161
0.00814746
0.012485
0.0153767
0.0168226
0.0197143
0.0226059
0.0254976
0.0298352
0.0356186
0.0442937
0.0544146
0.0616439
0.0674273
0.0761024
0.0847775
0.0948984
0.105019
0.116586
0.128153
0.133936
0.136828
0.13972
0.141166
0.144057
0.144057
0.144057
0.141166
0.135382
0.131045
0.125261
0.119478
0.113694
0.106465
0.099236
0.0905609
0.0732107
0.0486312
0.0298352
0.0153767
0.00236406
-0.0120944
-0.0236612
-0.0337822
-0.0410114
-0.045349
-0.0482407
-0.0511324
-0.0554699
-0.0583616
-0.0626992
-0.0670367
-0.0728201
-0.0814952
-0.0959537
-0.100291
-0.101737
-0.103183
-0.104629
-0.10752
-0.10752
-0.104629
-0.101737
-0.0988454
-0.0973995
-0.0959537
-0.0945078
-0.0916161
-0.0887244
-0.0858327
-0.0843869
-0.0814952
-0.0814952
-0.0800493
-0.0786035
-0.0771576
-0.0771576
-0.0771576
-0.0771576
-0.0771576
-0.0757118
-0.0757118
-0.0728201
-0.0713742
-0.0699284
-0.0684826
-0.0670367
-0.0655909
-0.064145
-0.0626992
-0.0612533
-0.0612533
-0.0612533
-0.0598075
-0.0598075
-0.0583616
-0.0583616
-0.0569158
-0.0554699
-0.0540241
-0.0511324
-0.0496865
-0.0482407
-0.0482407
-0.0496865
-0.0525782
-0.0569158
-0.0598075
-0.0612533
-0.064145
-0.0655909
-0.0684826
-0.0713742
-0.0728201
-0.0742659
-0.0757118
-0.0771576
-0.0771576
-0.0771576
-0.0771576
-0.0771576
-0.0757118
-0.0742659
-0.0728201
-0.0713742
-0.0699284
-0.0684826
-0.0655909
-0.0626992
-0.0583616
-0.0511324
-0.0294446
-0.0135403
-0.00486519
0.000918211
0.00670161
0.0110392
0.0139309
0.0182684
0.0254976
0.0240518
0.0153767
0.00814746
0.00380991
-0.000527639
-0.00486519
-0.00775688
-0.0120944
-0.0135403
-0.0193237
-0.0236612
-0.0279988
-0.0308905
-0.0337822
-0.0366739
-0.0381197
-0.0410114
-0.0439031
-0.0467948
-0.0496865
-0.0511324
-0.0511324
-0.0525782
-0.0540241
-0.0554699
-0.0598075
-0.0699284
-0.0757118
-0.0800493
-0.0858327
-0.0843869
-0.0757118
-0.0699284
-0.0655909
-0.0626992
-0.0583616
-0.0540241
-0.0496865
-0.0424573
-0.0149861
0.0428478
0.13972
0.282859
0.466482
0.663117
0.82939
0.904574
0.855415
0.666009
0.368164
0.0399561
-0.237647
-0.411149
-0.460308
-0.398136
-0.276685
-0.156679
-0.0771576
-0.0569158
-0.0511324
-0.0583616
-0.0670367
-0.0757118
-0.0742659
-0.0626992
-0.0554699
-0.0511324
-0.0482407
-0.045349
-0.0424573
-0.0395656
-0.0366739
-0.0323363
-0.0294446
-0.0251071
-0.0207695
-0.0120944
0.000918211
0.0139309
0.0182684
0.0211601
0.0226059
0.0240518
0.0269435
0.0283893
0.031281
0.0341727
0.0356186
0.0385103
0.0399561
0.041402
0.0442937
0.0486312
0.0515229
0.0587522
0.0746565
0.0833316
0.0920067
0.102128
0.11514
0.13249
0.149841
0.159962
0.165745
0.170083
0.175866
0.180204
0.184541
0.188879
0.19177
0.196108
0.199
0.201891
0.201891
0.201891
0.200445
0.199
0.196108
0.194662
0.19177
0.188879
0.183095
0.175866
0.168637
0.154178
0.133936
0.112249
0.0905609
0.0688731
0.0457395
0.0197143
-0.00197349
-0.0120944
-0.0193237
-0.0251071
-0.0308905
-0.0381197
-0.0439031
-0.0496865
-0.0540241
-0.0598075
-0.064145
-0.0655909
-0.0626992
-0.0583616
-0.0525782
-0.0482407
-0.045349
-0.0424573
-0.0381197
-0.035228
-0.0323363
-0.0308905
-0.0308905
-0.0323363
-0.0323363
-0.0337822
-0.035228
-0.035228
-0.0381197
-0.0410114
-0.0424573
-0.0439031
-0.0439031
-0.0424573
-0.0395656
-0.0366739
-0.035228
-0.0323363
-0.0279988
-0.0251071
-0.0236612
-0.0251071
-0.0279988
-0.0308905
-0.0337822
-0.0381197
-0.0410114
-0.0424573
-0.0410114
-0.0381197
-0.0337822
-0.0294446
-0.0251071
-0.0222154
-0.0193237
-0.0193237
-0.0222154
-0.0265529
-0.0323363
-0.035228
-0.0366739
-0.0395656
-0.0424573
-0.0439031
-0.0467948
-0.0482407
-0.0511324
-0.0525782
-0.0540241
-0.0554699
-0.0569158
-0.0583616
-0.0583616
-0.0598075
-0.0598075
-0.0612533
-0.0612533
-0.0626992
-0.064145
-0.0670367
-0.0684826
-0.0684826
-0.0684826
-0.0670367
-0.0626992
-0.0583616
-0.0540241
-0.0482407
-0.0424573
-0.0337822
-0.0279988
-0.0193237
-0.0120944
0.000918211
0.0139309
0.0211601
0.0254976
0.0298352
0.0327269
0.0341727
0.0327269
0.031281
0.0283893
0.0226059
0.0168226
0.00380991
-0.0149861
-0.0279988
-0.0381197
-0.0496865
-0.0655909
-0.082941
-0.093062
-0.101737
-0.101737
-0.093062
-0.0887244
-0.0858327
-0.0814952
-0.0800493
-0.0786035
-0.0771576
-0.0771576
-0.0771576
-0.0771576
-0.0771576
-0.0771576
-0.0786035
-0.0814952
-0.082941
-0.0843869
-0.0887244
-0.0916161
-0.0887244
-0.0800493
-0.0525782
-0.0120944
0.0544146
0.161407
0.313222
0.496844
0.684805
0.833727
0.885778
0.810594
0.600946
0.298763
-0.0251071
-0.289697
-0.432837
-0.453078
-0.408257
-0.307048
-0.218851
-0.172584
-0.152342
-0.137883
-0.117641
-0.101737
-0.093062
-0.0858327
-0.0814952
-0.0800493
-0.0800493
-0.0800493
-0.0786035
-0.0786035
-0.0786035
-0.0786035
-0.0786035
-0.0786035
-0.0786035
-0.0771576
-0.0757118
-0.0742659
-0.0713742
-0.0684826
-0.0626992
-0.0540241
-0.0410114
-0.0222154
-0.0106486
-0.00631104
-0.00486519
-0.00486519
-0.00341934
-0.00197349
-0.000527639
0.000918211
0.00236406
0.00380991
0.00525576
0.00814746
0.0110392
0.0153767
0.0254976
0.0457395
0.0616439
0.0717648
0.0804399
0.089115
0.103574
0.123815
0.13972
0.149841
0.159962
0.167191
0.172974
0.178758
0.183095
0.184541
0.183095
0.177312
0.170083
0.158516
0.13972
0.120924
0.100682
0.0804399
0.060198
0.0442937
0.031281
0.0153767
0.000918211
-0.0106486
-0.0178778
-0.0251071
-0.0308905
-0.0337822
-0.035228
-0.0381197
-0.0410114
-0.0439031
-0.0467948
-0.0496865
-0.0540241
-0.0569158
-0.0612533
-0.0670367
-0.0728201
-0.0786035
-0.082941
-0.0887244
-0.093062
-0.0988454
-0.103183
-0.108966
-0.111858
-0.111858
-0.110412
-0.106075
-0.100291
-0.093062
-0.0858327
-0.0757118
-0.0655909
-0.0569158
-0.0525782
-0.0482407
-0.045349
-0.0424573
-0.0410114
-0.0381197
-0.0366739
-0.0366739
-0.0366739
-0.0366739
-0.0366739
-0.0366739
-0.0381197
-0.0395656
-0.0410114
-0.0424573
-0.0439031
-0.045349
-0.0410114
-0.0323363
-0.0294446
-0.0265529
-0.0236612
-0.0207695
-0.0178778
-0.016432
-0.0149861
-0.0120944
-0.0120944
-0.0106486
-0.00920273
-0.00920273
-0.00920273
-0.0106486
-0.0120944
-0.0120944
-0.0120944
-0.0149861
-0.016432
-0.0193237
-0.0222154
-0.0251071
-0.0279988
-0.0366739
-0.0525782
-0.0598075
-0.0626992
-0.0655909
-0.0670367
-0.0670367
-0.0655909
-0.0626992
-0.0569158
-0.0496865
-0.035228
-0.0120944
-0.000527639
0.00380991
0.00670161
0.0110392
0.0139309
0.0153767
0.0182684
0.0197143
0.0197143
0.0197143
0.0197143
0.0197143
0.0182684
0.0168226
0.0139309
0.0110392
0.00814746
0.00380991
0.000918211
-0.00197349
-0.00631104
-0.0106486
-0.0149861
-0.0222154
-0.0294446
-0.0337822
-0.0381197
-0.0424573
-0.0467948
-0.0511324
-0.0525782
-0.0525782
-0.0525782
-0.0511324
-0.0511324
-0.0511324
-0.0511324
-0.0511324
-0.0496865
-0.0467948
-0.045349
-0.0482407
-0.0540241
-0.0626992
-0.0713742
-0.0814952
-0.0858327
-0.082941
-0.0757118
-0.0540241
0.00670161
0.0977901
0.21635
0.365272
0.535882
0.69348
0.790352
0.791798
0.703601
0.476603
0.190324
-0.0887244
-0.301264
-0.377894
-0.376448
-0.294035
-0.204392
-0.155234
-0.139329
-0.129208
-0.120533
-0.10752
-0.0814952
-0.0670367
-0.0612533
-0.0554699
-0.0525782
-0.0496865
-0.0482407
-0.0482407
-0.0482407
-0.0467948
-0.045349
-0.0439031
-0.0424573
-0.0410114
-0.0410114
-0.0410114
-0.0395656
-0.0381197
-0.0366739
-0.035228
-0.0337822
-0.0308905
-0.0294446
-0.0207695
-0.000527639
0.0182684
0.0298352
0.0356186
0.0385103
0.0399561
0.0428478
0.0442937
0.0457395
0.0471854
0.0500771
0.0529688
0.0587522
0.0630897
0.070319
0.0804399
0.089115
0.099236
0.109357
0.12237
0.13249
0.142611
0.152732
0.159962
0.164299
0.168637
0.171528
0.172974
0.170083
0.167191
0.161407
0.154178
0.142611
0.126707
0.113694
0.100682
0.0920067
0.0833316
0.0746565
0.0630897
0.0471854
0.0356186
0.0269435
0.0182684
0.0110392
0.00380991
-0.00920273
-0.0323363
-0.0439031
-0.0482407
-0.0525782
-0.0569158
-0.0598075
-0.0626992
-0.064145
-0.0670367
-0.0684826
-0.0713742
-0.0728201
-0.0728201
-0.0742659
-0.0742659
-0.0728201
-0.0728201
-0.0713742
-0.0684826
-0.0655909
-0.0626992
-0.0612533
-0.0598075
-0.0598075
-0.0583616
-0.0583616
-0.0569158
-0.0554699
-0.0540241
-0.0525782
-0.0511324
-0.0496865
-0.0467948
-0.0439031
-0.0424573
-0.0395656
-0.0381197
-0.0366739
-0.035228
-0.035228
-0.035228
-0.0366739
-0.0381197
-0.0395656
-0.0395656
-0.0395656
-0.0395656
-0.0395656
-0.0395656
-0.0395656
-0.0395656
-0.0381197
-0.0366739
-0.035228
-0.0381197
-0.0439031
-0.0511324
-0.0598075
-0.0684826
-0.0728201
-0.0655909
-0.0554699
-0.0496865
-0.0439031
-0.0381197
-0.0337822
-0.0308905
-0.0308905
-0.0337822
-0.0395656
-0.0439031
-0.0496865
-0.0540241
-0.0612533
-0.0670367
-0.0728201
-0.0757118
-0.0742659
-0.0713742
-0.0670367
-0.0612533
-0.0511324
-0.0294446
-0.0106486
0.00236406
0.00814746
0.012485
0.0153767
0.0139309
0.000918211
-0.00920273
-0.0149861
-0.0222154
-0.0294446
-0.035228
-0.0395656
-0.045349
-0.0511324
-0.0569158
-0.064145
-0.0699284
-0.0771576
-0.0814952
-0.0872786
-0.093062
-0.0973995
-0.0988454
-0.0973995
-0.0945078
-0.0916161
-0.0901703
-0.0887244
-0.0872786
-0.0858327
-0.0843869
-0.0814952
-0.0800493
-0.0771576
-0.0742659
-0.0728201
-0.0699284
-0.0670367
-0.0626992
-0.0583616
-0.035228
0.0182684
0.0977901
0.210566
0.350814
0.49829
0.5995
0.606729
0.543112
0.353705
0.0963443
-0.171138
-0.375003
-0.451633
-0.453078
-0.385124
-0.289697
-0.20873
-0.155234
-0.117641
-0.101737
-0.0916161
-0.0843869
-0.0800493
-0.0771576
-0.0728201
-0.0670367
-0.0626992
-0.0583616
-0.0569158
-0.0554699
-0.0525782
-0.0511324
-0.0496865
-0.0482407
-0.0467948
-0.0439031
-0.0424573
-0.0395656
-0.0381197
-0.035228
-0.0337822
-0.0323363
-0.0308905
-0.0279988
-0.0236612
-0.0178778
-0.00631104
0.00380991
0.0139309
0.0197143
0.0240518
0.0269435
0.031281
0.0341727
0.0385103
0.0428478
0.0471854
0.0515229
0.0573063
0.0659814
0.0775482
0.0920067
0.106465
0.116586
0.12237
0.128153
0.133936
0.136828
0.138274
0.13972
0.136828
0.13249
0.126707
0.120924
0.11514
0.110803
0.103574
0.0963443
0.089115
0.0833316
0.0789941
0.0761024
0.0717648
0.0674273
0.0630897
0.0558605
0.0471854
0.0399561
0.031281
0.0153767
-0.0120944
-0.0294446
-0.0395656
-0.0496865
-0.0612533
-0.0713742
-0.0771576
-0.082941
-0.0872786
-0.0916161
-0.0945078
-0.0973995
-0.0988454
-0.0988454
-0.0973995
-0.0959537
-0.093062
-0.0901703
-0.0858327
-0.082941
-0.0786035
-0.0713742
-0.0598075
-0.0511324
-0.045349
-0.0439031
-0.0424573
-0.0410114
-0.0381197
-0.0366739
-0.035228
-0.0337822
-0.0337822
-0.0337822
-0.0323363
-0.0323363
-0.0308905
-0.0323363
-0.0323363
-0.0337822
-0.0337822
-0.0337822
-0.0323363
-0.0308905
-0.0308905
-0.0294446
-0.0279988
-0.0265529
-0.0251071
-0.0236612
-0.0222154
-0.0222154
-0.0222154
-0.0222154
-0.0222154
-0.0222154
-0.0222154
-0.0222154
-0.0222154
-0.0222154
-0.0207695
-0.0193237
-0.0178778
-0.0178778
-0.0178778
-0.0193237
-0.0222154
-0.0236612
-0.0236612
-0.0236612
-0.0251071
-0.0265529
-0.0279988
-0.0294446
-0.0294446
-0.0265529
-0.0222154
-0.0178778
-0.0149861
-0.0120944
-0.0120944
-0.00775688
-0.00486519
-0.00341934
-0.000527639
0.000918211
0.000918211
0.00236406
0.00236406
0.000918211
-0.000527639
-0.00486519
-0.00920273
-0.0120944
-0.016432
-0.0222154
-0.0265529
-0.0323363
-0.0395656
-0.0467948
-0.0540241
-0.0598075
-0.0626992
-0.0670367
-0.0699284
-0.0742659
-0.0800493
-0.0872786
-0.0916161
-0.0945078
-0.093062
-0.0901703
-0.0872786
-0.082941
-0.0814952
-0.0786035
-0.0757118
-0.0713742
-0.0670367
-0.0626992
-0.0569158
-0.035228
0.0182684
0.100682
0.204783
0.323343
0.439011
0.535882
0.561908
0.547449
0.449131
0.264063
0.0269435
-0.207284
-0.386569
-0.451633
-0.448741
-0.372111
-0.265118
-0.182705
-0.143667
-0.127762
-0.113304
-0.0959537
-0.0684826
-0.0540241
-0.0496865
-0.045349
-0.0410114
-0.0395656
-0.0366739
-0.035228
-0.0323363
-0.0294446
-0.0265529
-0.0236612
-0.0222154
-0.0207695
-0.0207695
-0.0193237
-0.0178778
-0.0149861
-0.0120944
-0.00631104
0.000918211
0.00380991
0.00380991
0.00380991
0.00380991
0.00236406
-0.000527639
-0.00197349
0.00236406
0.012485
0.0226059
0.0370644
0.0500771
0.060198
0.0688731
0.0746565
0.0717648
0.0674273
0.0645356
0.0587522
0.0573063
0.0630897
0.0746565
0.089115
0.106465
0.120924
0.13972
0.158516
0.170083
0.178758
0.181649
0.175866
0.161407
0.151287
0.142611
0.133936
0.125261
0.116586
0.107911
0.0963443
0.0804399
0.070319
0.0616439
0.0529688
0.0399561
0.0254976
0.00525576
-0.016432
-0.0294446
-0.0381197
-0.0439031
-0.0496865
-0.0554699
-0.0612533
-0.064145
-0.0670367
-0.0699284
-0.0728201
-0.0757118
-0.0786035
-0.0800493
-0.0814952
-0.082941
-0.0858327
-0.0887244
-0.0901703
-0.093062
-0.0945078
-0.0959537
-0.0988454
-0.101737
-0.104629
-0.104629
-0.104629
-0.100291
-0.0973995
-0.093062
-0.0887244
-0.0843869
-0.0786035
-0.0713742
-0.064145
-0.0598075
-0.0554699
-0.0511324
-0.0482407
-0.0439031
-0.0410114
-0.0381197
-0.035228
-0.0337822
-0.0323363
-0.0308905
-0.0294446
-0.0279988
-0.0265529
-0.0251071
-0.0251071
-0.0251071
-0.0251071
-0.0265529
-0.0279988
-0.0308905
-0.0323363
-0.035228
-0.0395656
-0.0439031
-0.0482407
-0.0511324
-0.0554699
-0.0583616
-0.0612533
-0.0626992
-0.064145
-0.0655909
-0.0670367
-0.0670367
-0.0670367
-0.0670367
-0.0655909
-0.064145
-0.0626992
-0.0612533
-0.0583616
-0.0554699
-0.0540241
-0.0525782
-0.0511324
-0.0496865
-0.0482407
-0.045349
-0.0424573
-0.0381197
-0.035228
-0.0337822
-0.0323363
-0.0294446
-0.0279988
-0.0251071
-0.0222154
-0.0120944
0.00236406
0.00959331
0.0139309
0.0168226
0.0139309
0.00814746
0.00236406
-0.00486519
-0.0120944
-0.0193237
-0.0337822
-0.0511324
-0.0554699
-0.0583616
-0.0612533
-0.0626992
-0.064145
-0.0655909
-0.0655909
-0.0670367
-0.0670367
-0.0670367
-0.0684826
-0.0684826
-0.0699284
-0.0699284
-0.0699284
-0.0699284
-0.0684826
-0.0684826
-0.0684826
-0.0670367
-0.0655909
-0.064145
-0.0612533
-0.0598075
-0.0554699
-0.0525782
-0.0279988
0.0399561
0.146949
0.288642
0.454915
0.61685
0.744085
0.788906
0.712276
0.506965
0.220687
-0.0786035
-0.314277
-0.398136
-0.39669
-0.308494
-0.204392
-0.127762
-0.0988454
-0.0916161
-0.0858327
-0.0814952
-0.0786035
-0.0757118
-0.0728201
-0.0684826
-0.0670367
-0.064145
-0.0626992
-0.0583616
-0.0554699
-0.0511324
-0.0467948
-0.0410114
-0.035228
-0.0279988
-0.0222154
-0.016432
-0.0120944
-0.00775688
-0.00197349
0.00380991
0.00670161
0.00814746
0.00959331
0.00959331
0.0110392
0.012485
0.012485
0.012485
0.0139309
0.0153767
0.0168226
0.0182684
0.0211601
0.0240518
0.0283893
0.0356186
0.0486312
0.060198
0.0775482
0.099236
0.118032
0.138274
0.152732
0.162853
0.172974
0.183095
0.193216
0.201891
0.207675
0.200445
0.188879
0.178758
0.168637
0.158516
0.151287
0.142611
0.131045
0.118032
0.110803
0.106465
0.102128
0.0963443
0.0876692
0.0732107
0.0529688
0.0385103
0.0283893
0.0197143
0.0110392
0.00380991
-0.00197349
-0.00775688
-0.0149861
-0.0236612
-0.0294446
-0.035228
-0.0395656
-0.045349
-0.0482407
-0.0525782
-0.0554699
-0.0598075
-0.0684826
-0.0800493
-0.0872786
-0.0916161
-0.0945078
-0.0973995
-0.0973995
-0.0973995
-0.0945078
-0.0887244
-0.0814952
-0.0699284
-0.0511324
-0.0439031
-0.0395656
-0.0366739
-0.035228
-0.0337822
-0.0323363
-0.0308905
-0.0308905
-0.0308905
-0.0323363
-0.0337822
-0.035228
-0.0381197
-0.0395656
-0.045349
-0.0467948
-0.0439031
-0.035228
-0.0308905
-0.0265529
-0.0222154
-0.0193237
-0.0178778
-0.0178778
-0.0222154
-0.0279988
-0.0323363
-0.0366739
-0.0395656
-0.0424573
-0.0467948
-0.0511324
-0.0525782
-0.0554699
-0.0554699
-0.0554699
-0.0554699
-0.0554699
-0.0540241
-0.0511324
-0.0467948
-0.0439031
-0.0410114
-0.0395656
-0.0381197
-0.0366739
-0.0337822
-0.0308905
-0.0279988
-0.0265529
-0.0251071
-0.0236612
-0.0236612
-0.0236612
-0.0251071
-0.0265529
-0.0294446
-0.0337822
-0.0366739
-0.0439031
-0.0540241
-0.0583616
-0.0612533
-0.0655909
-0.0554699
-0.0439031
-0.035228
-0.0265529
-0.0193237
-0.00775688
0.00670161
0.0139309
0.0182684
0.0226059
0.0226059
0.0211601
0.0153767
0.00959331
0.00236406
-0.00486519
-0.0120944
-0.0207695
-0.0323363
-0.045349
-0.0511324
-0.0554699
-0.0569158
-0.0583616
-0.0598075
-0.0598075
-0.0612533
-0.0626992
-0.064145
-0.0655909
-0.0684826
-0.0713742
-0.0742659
-0.0757118
-0.0771576
-0.0800493
-0.0814952
-0.082941
-0.0843869
-0.0843869
-0.082941
-0.0786035
-0.0728201
-0.064145
-0.0294446
0.0500771
0.161407
0.305992
0.467927
0.625525
0.755651
0.816377
0.773002
0.612512
0.355151
0.0544146
-0.215959
-0.386569
-0.429945
-0.363436
-0.263672
-0.187042
-0.158125
-0.14945
-0.140775
-0.130654
-0.100291
-0.0626992
-0.0496865
-0.045349
-0.0439031
-0.0439031
-0.0482407
-0.0525782
-0.0583616
-0.0511324
-0.045349
-0.0439031
-0.0410114
-0.0395656
-0.0381197
-0.0366739
-0.035228
-0.0337822
-0.0308905
-0.0279988
-0.0251071
-0.0222154
-0.0193237
-0.0178778
-0.0135403
-0.0106486
-0.00631104
-0.000527639
0.00380991
0.0110392
0.0168226
0.0269435
0.0341727
0.0399561
0.0457395
0.0500771
0.0573063
0.0717648
0.0847775
0.0948984
0.105019
0.113694
0.118032
0.12237
0.125261
0.126707
0.129599
0.13249
0.133936
0.136828
0.138274
0.141166
0.142611
0.145503
0.149841
0.154178
0.155624
0.154178
0.149841
0.142611
0.131045
0.113694
0.0977901
0.0818858
0.0688731
0.0587522
0.0471854
0.0341727
0.0139309
-0.00341934
-0.0120944
-0.0236612
-0.035228
-0.045349
-0.0554699
-0.0626992
-0.0670367
-0.0699284
-0.0713742
-0.0713742
-0.0728201
-0.0742659
-0.0757118
-0.0771576
-0.0786035
-0.0800493
-0.0800493
-0.0800493
-0.0800493
-0.0786035
-0.0771576
-0.0742659
-0.0728201
-0.0699284
-0.0670367
-0.064145
-0.0626992
-0.0612533
-0.0598075
-0.0583616
-0.0569158
-0.0554699
-0.0540241
-0.0525782
-0.0511324
-0.0482407
-0.045349
-0.0439031
-0.0410114
-0.0381197
-0.0366739
-0.035228
-0.035228
-0.0337822
-0.0323363
-0.0323363
-0.0308905
-0.0294446
-0.0279988
-0.0251071
-0.0236612
-0.0207695
-0.0178778
-0.0149861
-0.0135403
-0.0135403
-0.0120944
-0.0135403
-0.0149861
-0.0178778
-0.0222154
-0.0265529
-0.0323363
-0.0366739
-0.045349
-0.0612533
-0.0699284
-0.0742659
-0.0786035
-0.082941
-0.0800493
-0.0655909
-0.0554699
-0.0496865
-0.0439031
-0.0395656
-0.0366739
-0.0337822
-0.0308905
-0.0279988
-0.0265529
-0.0236612
-0.0207695
-0.0178778
-0.016432
-0.0135403
-0.0120944
-0.0106486
-0.00775688
-0.00631104
-0.00486519
-0.00341934
-0.00197349
-0.000527639
0.00236406
0.00380991
0.00670161
0.00814746
0.00814746
0.00814746
0.00670161
0.00525576
0.000918211
-0.00197349
-0.00631104
-0.0106486
-0.0120944
-0.016432
-0.0207695
-0.0265529
-0.0308905
-0.035228
-0.0381197
-0.0424573
-0.045349
-0.0482407
-0.0525782
-0.0569158
-0.0612533
-0.0670367
-0.0728201
-0.0786035
-0.0814952
-0.0800493
-0.0757118
-0.0713742
-0.0655909
-0.0598075
-0.0496865
-0.0410114
-0.0323363
-0.0178778
0.00525576
0.0558605
0.135382
0.243821
0.381177
0.531545
0.667455
0.748422
0.749868
0.671792
0.456361
0.159962
-0.145113
-0.376448
-0.445849
-0.43862
-0.335965
-0.221743
-0.139329
-0.0988454
-0.0858327
-0.0757118
-0.0684826
-0.0626992
-0.0598075
-0.0569158
-0.0525782
-0.0511324
-0.0482407
-0.045349
-0.0424573
-0.0410114
-0.0381197
-0.0366739
-0.0366739
-0.035228
-0.035228
-0.0337822
-0.0308905
-0.0294446
-0.0265529
-0.0251071
-0.0222154
-0.0207695
-0.0178778
-0.0149861
-0.0135403
-0.0106486
-0.00631104
-0.00197349
0.00525576
0.012485
0.0197143
0.0240518
0.0298352
0.0370644
0.0457395
0.060198
0.0717648
0.0804399
0.0862233
0.0934526
0.105019
0.116586
0.12237
0.126707
0.131045
0.135382
0.138274
0.142611
0.145503
0.146949
0.148395
0.148395
0.149841
0.151287
0.151287
0.149841
0.149841
0.149841
0.151287
0.152732
0.15707
0.141166
0.119478
0.102128
0.0847775
0.070319
0.0544146
0.0385103
0.0182684
-0.00775688
-0.0251071
-0.035228
-0.0439031
-0.0540241
-0.0626992
-0.0757118
-0.0916161
-0.0959537
-0.0988454
-0.100291
-0.101737
-0.103183
-0.103183
-0.0988454
-0.0945078
-0.0901703
-0.0858327
-0.0800493
-0.0757118
-0.0699284
-0.0684826
-0.0684826
-0.0713742
-0.0757118
-0.0800493
-0.0858327
-0.093062
-0.100291
-0.101737
-0.0988454
-0.093062
-0.0887244
-0.0843869
-0.0814952
-0.0771576
-0.0742659
-0.0713742
-0.0670367
-0.0626992
-0.0583616
-0.0554699
-0.0525782
-0.0511324
-0.0482407
-0.045349
-0.0424573
-0.0410114
-0.0410114
-0.0424573
-0.045349
-0.0467948
-0.0482407
-0.0496865
-0.0496865
-0.0496865
-0.0511324
-0.0525782
-0.0525782
-0.0540241
-0.0540241
-0.0554699
-0.0569158
-0.0583616
-0.0598075
-0.0598075
-0.0612533
-0.0612533
-0.0612533
-0.0612533
-0.0612533
-0.0612533
-0.0598075
-0.0583616
-0.0583616
-0.0569158
-0.0554699
-0.0540241
-0.0525782
-0.0511324
-0.0511324
-0.0511324
-0.0511324
-0.0496865
-0.0482407
-0.0467948
-0.045349
-0.0424573
-0.0381197
-0.0337822
-0.0294446
-0.0251071
-0.0222154
-0.0178778
-0.0135403
-0.0106486
-0.00775688
-0.00341934
-0.000527639
0.00380991
0.0110392
0.0197143
0.0254976
0.0254976
0.0211601
0.012485
0.00380991
-0.00341934
-0.0106486
-0.016432
-0.0236612
-0.0294446
-0.0366739
-0.0424573
-0.0467948
-0.0496865
-0.0511324
-0.0540241
-0.0554699
-0.0569158
-0.0583616
-0.0598075
-0.0612533
-0.064145
-0.0655909
-0.0684826
-0.0684826
-0.0684826
-0.0684826
-0.0670367
-0.064145
-0.0626992
-0.0598075
-0.0569158
-0.0511324
-0.0467948
-0.0410114
-0.0366739
-0.00775688
0.0529688
0.142611
0.265509
0.42166
0.586487
0.725289
0.773002
0.755651
0.611067
0.334909
0.0110392
-0.266564
-0.416932
-0.434282
-0.37934
-0.262226
-0.163909
-0.104629
-0.0887244
-0.0786035
-0.0670367
-0.0598075
-0.0554699
-0.0525782
-0.0496865
-0.045349
-0.0424573
-0.0410114
-0.0395656
-0.0381197
-0.0366739
-0.0366739
-0.035228
-0.0337822
-0.0323363
-0.0308905
-0.0308905
-0.0308905
-0.0308905
-0.0294446
-0.0265529
-0.0251071
-0.0207695
-0.0178778
-0.0135403
-0.00775688
0.00670161
0.0197143
0.0327269
0.0457395
0.060198
0.0659814
0.070319
0.0732107
0.0761024
0.0789941
0.0818858
0.0862233
0.089115
0.0920067
0.0963443
0.099236
0.102128
0.106465
0.112249
0.123815
0.13249
0.136828
0.13972
0.142611
0.145503
0.148395
0.151287
0.154178
0.154178
0.154178
0.154178
0.152732
0.151287
0.148395
0.144057
0.138274
0.128153
0.105019
0.0847775
0.0732107
0.0616439
0.0515229
0.0385103
0.0226059
0.00525576
-0.00775688
-0.0149861
-0.0236612
-0.0308905
-0.0381197
-0.0496865
-0.064145
-0.0742659
-0.0786035
-0.0814952
-0.082941
-0.0858327
-0.0872786
-0.0887244
-0.0901703
-0.0901703
-0.0887244
-0.0887244
-0.0872786
-0.0858327
-0.082941
-0.0800493
-0.0771576
-0.0742659
-0.0713742
-0.0699284
-0.0670367
-0.064145
-0.0612533
-0.0583616
-0.0569158
-0.0554699
-0.0554699
-0.0554699
-0.0554699
-0.0554699
-0.0569158
-0.0583616
-0.0612533
-0.0626992
-0.0598075
-0.0525782
-0.0482407
-0.0439031
-0.0410114
-0.0381197
-0.0366739
-0.0366739
-0.0395656
-0.0424573
-0.0467948
-0.0511324
-0.0569158
-0.0626992
-0.0655909
-0.064145
-0.0612533
-0.0583616
-0.0569158
-0.0554699
-0.0540241
-0.0525782
-0.0511324
-0.0482407
-0.0482407
-0.0482407
-0.0482407
-0.0482407
-0.0482407
-0.0482407
-0.0496865
-0.0511324
-0.0540241
-0.0540241
-0.0554699
-0.0554699
-0.0569158
-0.0598075
-0.064145
-0.064145
-0.0583616
-0.0511324
-0.045349
-0.0395656
-0.0337822
-0.0323363
-0.0294446
-0.0279988
-0.0251071
-0.0222154
-0.0207695
-0.0193237
-0.016432
-0.0120944
-0.00920273
-0.00486519
0.00525576
0.0182684
0.0254976
0.0298352
0.0327269
0.0356186
0.0356186
0.0341727
0.0269435
0.0182684
0.000918211
-0.0207695
-0.0265529
-0.0294446
-0.0308905
-0.0323363
-0.0337822
-0.035228
-0.035228
-0.035228
-0.035228
-0.035228
-0.035228
-0.0366739
-0.0381197
-0.0381197
-0.0395656
-0.0410114
-0.0424573
-0.0439031
-0.045349
-0.0467948
-0.0496865
-0.0525782
-0.0554699
-0.0626992
-0.0757118
-0.0814952
-0.0800493
-0.0742659
-0.0583616
-0.00631104
0.0746565
0.184541
0.324788
0.485278
0.637092
0.726735
0.72818
0.641429
0.424552
0.146949
-0.121979
-0.305602
-0.351869
-0.34464
-0.263672
-0.19138
-0.158125
-0.148004
-0.140775
-0.1321
-0.103183
-0.0757118
-0.0684826
-0.064145
-0.0612533
-0.0583616
-0.0554699
-0.0511324
-0.0467948
-0.0424573
-0.0366739
-0.0323363
-0.0251071
-0.016432
-0.00920273
-0.00341934
0.000918211
0.00380991
0.00525576
0.00814746
0.0110392
0.012485
0.0139309
0.0139309
0.0153767
0.0168226
0.0182684
0.0197143
0.0211601
0.0226059
0.0240518
0.0254976
0.0269435
0.0298352
0.0341727
0.0385103
0.0457395
0.0630897
0.0746565
0.0833316
0.0920067
0.103574
0.120924
0.13249
0.142611
0.151287
0.15707
0.159962
0.159962
0.159962
0.161407
0.161407
0.162853
0.161407
0.148395
0.138274
0.131045
0.123815
0.118032
0.112249
0.106465
0.0963443
0.0833316
0.070319
0.0587522
0.0457395
0.0327269
0.0197143
0.00525576
-0.00486519
-0.0120944
-0.0149861
-0.0178778
-0.0207695
-0.0251071
-0.0294446
-0.0337822
-0.0410114
-0.0540241
-0.0771576
-0.0887244
-0.0945078
-0.100291
-0.103183
-0.103183
-0.103183
-0.100291
-0.0973995
-0.093062
-0.0887244
-0.0843869
-0.0786035
-0.0728201
-0.0670367
-0.0612533
-0.0554699
-0.0525782
-0.0482407
-0.0439031
-0.0410114
-0.0381197
-0.0395656
-0.0410114
-0.0439031
-0.045349
-0.0467948
-0.0482407
-0.0496865
-0.0511324
-0.0511324
-0.0525782
-0.0540241
-0.0540241
-0.0554699
-0.0540241
-0.0540241
-0.0540241
-0.0540241
-0.0525782
-0.0525782
-0.0511324
-0.0496865
-0.0482407
-0.0467948
-0.0467948
-0.045349
-0.0439031
-0.0439031
-0.0439031
-0.0439031
-0.0439031
-0.045349
-0.0467948
-0.0482407
-0.0511324
-0.0554699
-0.0583616
-0.0626992
-0.0655909
-0.0699284
-0.0742659
-0.0800493
-0.082941
-0.0843869
-0.082941
-0.0800493
-0.0757118
-0.0699284
-0.0626992
-0.0540241
-0.0439031
-0.0337822
-0.0279988
-0.0236612
-0.0193237
-0.016432
-0.0135403
-0.0120944
-0.0106486
-0.00920273
-0.00775688
-0.00775688
-0.00631104
-0.00486519
-0.00341934
-0.00341934
-0.00341934
-0.00486519
-0.00775688
-0.0120944
-0.0149861
-0.0265529
-0.0395656
-0.045349
-0.0482407
-0.0511324
-0.0525782
-0.0511324
-0.0482407
-0.045349
-0.0410114
-0.0366739
-0.0308905
-0.0265529
-0.0323363
-0.0424573
-0.0511324
-0.0626992
-0.0713742
-0.0771576
-0.0800493
-0.0814952
-0.0843869
-0.0872786
-0.0887244
-0.0887244
-0.0901703
-0.0887244
-0.0872786
-0.082941
-0.0786035
-0.0713742
-0.0467948
-0.00631104
0.0645356
0.162853
0.294426
0.453469
0.612512
0.722397
0.731072
0.663117
0.441902
0.149841
-0.134992
-0.338856
-0.402474
-0.398136
-0.311385
-0.210176
-0.137883
-0.111858
-0.106075
-0.101737
-0.0988454
-0.0945078
-0.0916161
-0.0901703
-0.0858327
-0.082941
-0.0742659
-0.0569158
-0.0467948
-0.0424573
-0.0395656
-0.0366739
-0.035228
-0.0323363
-0.0294446
-0.0279988
-0.0265529
-0.0236612
-0.0222154
-0.0178778
-0.0120944
0.00525576
0.0110392
0.0139309
0.0153767
0.0182684
0.0197143
0.0211601
0.0226059
0.0254976
0.0283893
0.0298352
0.0327269
0.0341727
0.0370644
0.0399561
0.0428478
0.0500771
0.0573063
0.0645356
0.0732107
0.0905609
0.113694
0.123815
0.129599
0.133936
0.136828
0.138274
0.13972
0.141166
0.142611
0.144057
0.144057
0.145503
0.145503
0.148395
0.151287
0.152732
0.148395
0.138274
0.125261
0.099236
0.0789941
0.0674273
0.0587522
0.0515229
0.0457395
0.0341727
0.0168226
0.00236406
-0.00486519
-0.0120944
-0.0193237
-0.0279988
-0.035228
-0.0410114
-0.045349
-0.0496865
-0.0525782
-0.0554699
-0.0583616
-0.0598075
-0.0612533
-0.0626992
-0.064145
-0.064145
-0.0655909
-0.0655909
-0.0655909
-0.0655909
-0.0655909
-0.0670367
-0.0670367
-0.0670367
-0.0655909
-0.0655909
-0.0655909
-0.064145
-0.0626992
-0.0612533
-0.0598075
-0.0583616
-0.0569158
-0.0540241
-0.0525782
-0.0525782
-0.0511324
-0.0496865
-0.0482407
-0.0467948
-0.0439031
-0.0410114
-0.0395656
-0.0366739
-0.035228
-0.0337822
-0.0337822
-0.035228
-0.0381197
-0.0395656
-0.0424573
-0.045349
-0.0511324
-0.0525782
-0.0467948
-0.0424573
-0.0395656
-0.0366739
-0.035228
-0.0395656
-0.0439031
-0.0482407
-0.0540241
-0.0583616
-0.0612533
-0.0626992
-0.0655909
-0.0670367
-0.0684826
-0.0699284
-0.0713742
-0.0699284
-0.0684826
-0.0670367
-0.0655909
-0.064145
-0.0626992
-0.0612533
-0.0612533
-0.0598075
-0.0583616
-0.0569158
-0.0554699
-0.0554699
-0.0540241
-0.0525782
-0.0525782
-0.0511324
-0.0496865
-0.0482407
-0.0482407
-0.0467948
-0.045349
-0.0424573
-0.0381197
-0.0323363
-0.0251071
-0.0178778
-0.0120944
-0.00631104
-0.000527639
0.00380991
0.00814746
0.00959331
0.00814746
0.00525576
0.000918211
-0.00341934
-0.00775688
-0.0120944
-0.0207695
-0.0294446
-0.0381197
-0.0424573
-0.0467948
-0.0496865
-0.0525782
-0.0554699
-0.0583616
-0.0598075
-0.0612533
-0.0598075
-0.0598075
-0.0598075
-0.0583616
-0.0569158
-0.0554699
-0.0525782
-0.0496865
-0.0482407
-0.045349
-0.0395656
-0.0366739
-0.0410114
-0.0525782
-0.0699284
-0.0858327
-0.093062
-0.0973995
-0.0959537
-0.0800493
-0.0366739
0.0356186
0.133936
0.252496
0.394189
0.548895
0.687697
0.742639
0.72818
0.596608
0.347922
0.0515229
-0.213067
-0.37934
-0.416932
-0.347531
-0.237647
-0.148004
-0.106075
-0.0973995
-0.0916161
-0.0858327
-0.082941
-0.0800493
-0.0771576
-0.0742659
-0.0728201
-0.0713742
-0.0684826
-0.0655909
-0.0626992
-0.0583616
-0.0482407
-0.035228
-0.0236612
-0.0120944
-0.00631104
-0.000527639
0.00236406
0.00525576
0.00814746
0.00959331
0.0110392
0.012485
0.0153767
0.0168226
0.0182684
0.0197143
0.0197143
0.0226059
0.0254976
0.031281
0.041402
0.0471854
0.0500771
0.0529688
0.0558605
0.060198
0.0645356
0.0717648
0.0789941
0.0862233
0.0948984
0.103574
0.112249
0.120924
0.133936
0.148395
0.154178
0.15707
0.159962
0.162853
0.164299
0.165745
0.165745
0.164299
0.162853
0.158516
0.154178
0.149841
0.142611
0.13249
0.123815
0.116586
0.106465
0.0862233
0.0688731
0.0587522
0.0500771
0.0428478
0.0370644
0.0269435
0.00814746
-0.00775688
-0.0149861
-0.0222154
-0.0308905
-0.0381197
-0.0424573
-0.0482407
-0.0525782
-0.0569158
-0.0598075
-0.0598075
-0.0598075
-0.0583616
-0.0569158
-0.0554699
-0.0540241
-0.0511324
-0.0482407
-0.0482407
-0.0496865
-0.0525782
-0.0540241
-0.0540241
-0.0554699
-0.0569158
-0.0569158
-0.0583616
-0.0583616
-0.0598075
-0.0598075
-0.0583616
-0.0583616
-0.0569158
-0.0554699
-0.0525782
-0.0496865
-0.0482407
-0.045349
-0.0439031
-0.0424573
-0.0395656
-0.0381197
-0.0381197
-0.0381197
-0.0381197
-0.0381197
-0.0381197
-0.0395656
-0.0395656
-0.0410114
-0.0424573
-0.045349
-0.0482407
-0.0511324
-0.0554699
-0.064145
-0.0771576
-0.0800493
-0.0843869
-0.082941
-0.0786035
-0.0742659
-0.0713742
-0.0699284
-0.0684826
-0.0655909
-0.0612533
-0.0583616
-0.0540241
-0.0496865
-0.045349
-0.0439031
-0.0467948
-0.0496865
-0.0554699
-0.0583616
-0.0626992
-0.0670367
-0.0699284
-0.0713742
-0.0713742
-0.0699284
-0.0670367
-0.064145
-0.0612533
-0.0569158
-0.0569158
-0.0626992
-0.0699284
-0.0771576
-0.0626992
-0.0496865
-0.0410114
-0.0337822
-0.0265529
-0.0178778
-0.0120944
-0.00775688
-0.00197349
0.00380991
0.00814746
0.012485
0.012485
0.0110392
0.00814746
0.00525576
0.000918211
-0.00341934
-0.0120944
-0.0337822
-0.0439031
-0.0496865
-0.0554699
-0.0583616
-0.0598075
-0.0612533
-0.0612533
-0.0612533
-0.0612533
-0.0612533
-0.0598075
-0.0598075
-0.0583616
-0.0583616
-0.0583616
-0.0583616
-0.0583616
-0.0569158
-0.0569158
-0.0583616
-0.0612533
-0.064145
-0.0670367
-0.0713742
-0.0814952
-0.093062
-0.100291
-0.104629
-0.0887244
-0.0424573
0.0341727
0.142611
0.284305
0.454915
0.622633
0.733964
0.742639
0.680467
0.475157
0.196108
-0.0945078
-0.317169
-0.398136
-0.401028
-0.334519
-0.246322
-0.176921
-0.129208
-0.110412
-0.0973995
-0.082941
-0.0713742
-0.0626992
-0.0626992
-0.0684826
-0.0742659
-0.0786035
-0.082941
-0.0814952
-0.0757118
-0.0670367
-0.0583616
-0.0496865
-0.0424573
-0.0366739
-0.0337822
-0.0294446
-0.0251071
-0.0207695
-0.0149861
-0.0106486
-0.00486519
-0.000527639
0.00236406
0.00525576
0.00814746
0.0110392
0.0139309
0.0168226
0.0182684
0.0211601
0.0240518
0.0283893
0.0341727
0.0428478
0.0515229
0.060198
0.0688731
0.0761024
0.0818858
0.089115
0.0948984
0.103574
0.11514
0.126707
0.13972
0.151287
0.158516
0.164299
0.168637
0.171528
0.172974
0.170083
0.162853
0.154178
0.146949
0.142611
0.136828
0.13249
0.128153
0.123815
0.12237
0.119478
0.11514
0.107911
0.0977901
0.0862233
0.0587522
0.0211601
0.000918211
-0.0135403
-0.0251071
-0.0366739
-0.0424573
-0.0467948
-0.0482407
-0.0511324
-0.0540241
-0.0569158
-0.0598075
-0.0626992
-0.064145
-0.0655909
-0.0684826
-0.0699284
-0.0713742
-0.0728201
-0.0728201
-0.0728201
-0.0728201
-0.0728201
-0.0728201
-0.0728201
-0.0699284
-0.0670367
-0.064145
-0.0612533
-0.0583616
-0.0554699
-0.0525782
-0.0467948
-0.0410114
-0.0366739
-0.035228
-0.0381197
-0.0410114
-0.045349
-0.0482407
-0.0525782
-0.0569158
-0.0612533
-0.0655909
-0.0670367
-0.0655909
-0.0612533
-0.0554699
-0.0511324
-0.0482407
-0.0439031
-0.0381197
-0.0337822
-0.0323363
-0.0323363
-0.035228
-0.0395656
-0.0439031
-0.0482407
-0.0511324
-0.0554699
-0.0612533
-0.0655909
-0.0684826
-0.0684826
-0.0684826
-0.0684826
-0.0684826
-0.0684826
-0.0699284
-0.0684826
-0.0670367
-0.0655909
-0.0670367
-0.0713742
-0.0742659
-0.0771576
-0.0814952
-0.082941
-0.0814952
-0.0742659
-0.0655909
-0.0612533
-0.0583616
-0.0540241
-0.0525782
-0.0511324
-0.0482407
-0.045349
-0.0424573
-0.0395656
-0.035228
-0.0337822
-0.0308905
-0.0294446
-0.0265529
-0.0236612
-0.0207695
-0.0178778
-0.016432
-0.0135403
-0.00920273
-0.00486519
-0.000527639
0.000918211
0.000918211
-0.00197349
-0.00631104
-0.0106486
-0.0120944
-0.0149861
-0.0193237
-0.0236612
-0.0279988
-0.0323363
-0.0366739
-0.0395656
-0.0439031
-0.0467948
-0.0511324
-0.0554699
-0.0583616
-0.0612533
-0.064145
-0.0655909
-0.0699284
-0.0728201
-0.0742659
-0.0757118
-0.0771576
-0.0771576
-0.0771576
-0.0786035
-0.0786035
-0.0786035
-0.0786035
-0.0786035
-0.0800493
-0.0814952
-0.0800493
-0.0713742
-0.0439031
0.000918211
0.0746565
0.178758
0.316113
0.473711
0.622633
0.719505
0.725289
0.650104
0.439011
0.151287
-0.140775
-0.363436
-0.444403
-0.444403
-0.36199
-0.241984
-0.139329
-0.106075
-0.093062
-0.0916161
-0.0973995
-0.103183
-0.108966
-0.106075
-0.0887244
-0.0786035
-0.0728201
-0.0670367
-0.0626992
-0.0598075
-0.0569158
-0.0540241
-0.0511324
-0.0482407
-0.0467948
-0.0439031
-0.0395656
-0.035228
-0.0308905
-0.0265529
-0.0222154
-0.0178778
-0.0149861
-0.0120944
-0.00920273
-0.00631104
-0.00341934
-0.000527639
0.00236406
0.00525576
0.00814746
0.012485
0.0168226
0.0226059
0.0283893
0.0370644
0.0442937
0.0515229
0.060198
0.0775482
0.102128
0.11514
0.12237
0.128153
0.13249
0.133936
0.135382
0.136828
0.138274
0.141166
0.141166
0.142611
0.142611
0.142611
0.142611
0.13972
0.135382
0.129599
0.12237
0.107911
0.0833316
0.0717648
0.0659814
0.060198
0.0558605
0.0500771
0.0442937
0.0385103
0.031281
0.0226059
0.012485
0.00380991
-0.0106486
-0.0323363
-0.0424573
-0.0467948
-0.0511324
-0.0554699
-0.0569158
-0.0583616
-0.0598075
-0.0612533
-0.0626992
-0.0626992
-0.064145
-0.0655909
-0.0670367
-0.0699284
-0.0771576
-0.0771576
-0.0684826
-0.064145
-0.0612533
-0.0598075
-0.0583616
-0.0583616
-0.0569158
-0.0554699
-0.0525782
-0.0496865
-0.0467948
-0.0439031
-0.0424573
-0.0410114
-0.0381197
-0.035228
-0.0294446
-0.0236612
-0.0207695
-0.0178778
-0.0149861
-0.0120944
-0.0106486
-0.00775688
-0.00486519
-0.00486519
-0.00775688
-0.0120944
-0.0149861
-0.0207695
-0.0236612
-0.0279988
-0.0308905
-0.035228
-0.0381197
-0.0410114
-0.0424573
-0.0439031
-0.045349
-0.045349
-0.045349
-0.0439031
-0.0424573
-0.0424573
-0.0410114
-0.0395656
-0.0381197
-0.0381197
-0.0366739
-0.0366739
-0.035228
-0.0308905
-0.0265529
-0.0251071
-0.0251071
-0.0294446
-0.0337822
-0.0381197
-0.0410114
-0.045349
-0.0467948
-0.0482407
-0.045349
-0.0410114
-0.0337822
-0.0265529
-0.0178778
-0.0106486
-0.000527639
0.00814746
0.0153767
0.0211601
0.0269435
0.031281
0.0327269
0.0327269
0.0298352
0.0269435
0.0226059
0.0182684
0.012485
0.00380991
-0.0106486
-0.0251071
-0.0308905
-0.0337822
-0.035228
-0.0381197
-0.0410114
-0.0439031
-0.045349
-0.0482407
-0.0496865
-0.0496865
-0.0511324
-0.0525782
-0.0525782
-0.0540241
-0.0525782
-0.0525782
-0.0525782
-0.0511324
-0.0525782
-0.0525782
-0.0540241
-0.0554699
-0.0569158
-0.0598075
-0.064145
-0.0626992
-0.0496865
-0.0120944
0.0428478
0.116586
0.212012
0.334909
0.469373
0.589379
0.6342
0.621188
0.50552
0.281413
0.00814746
-0.236201
-0.399582
-0.461754
-0.422716
-0.32729
-0.230418
-0.159571
-0.119087
-0.0945078
-0.0655909
-0.0525782
-0.0467948
-0.0439031
-0.0525782
-0.0612533
-0.0699284
-0.0728201
-0.0670367
-0.0554699
-0.0424573
-0.0294446
-0.0236612
-0.0207695
-0.0207695
-0.0193237
-0.0178778
-0.016432
-0.0149861
-0.0135403
-0.0135403
-0.0120944
-0.0120944
-0.00920273
-0.00631104
-0.00486519
-0.00197349
0.000918211
0.00380991
0.00814746
0.012485
0.0168226
0.0211601
0.0269435
0.0327269
0.0385103
0.0486312
0.0616439
0.0746565
0.0876692
0.0963443
0.103574
0.109357
0.116586
0.12237
0.126707
0.131045
0.135382
0.138274
0.141166
0.144057
0.148395
0.149841
0.151287
0.151287
0.149841
0.146949
0.144057
0.13972
0.133936
0.126707
0.112249
0.0948984
0.0761024
0.0573063
0.0442937
0.0298352
0.0168226
0.00236406
-0.00775688
-0.0149861
-0.0222154
-0.0279988
-0.0337822
-0.0381197
-0.0424573
-0.045349
-0.0496865
-0.0554699
-0.0612533
-0.0684826
-0.0742659
-0.0800493
-0.0843869
-0.0887244
-0.0901703
-0.0916161
-0.0945078
-0.0959537
-0.0988454
-0.101737
-0.103183
-0.103183
-0.0988454
-0.093062
-0.0887244
-0.0843869
-0.0786035
-0.0728201
-0.0684826
-0.0655909
-0.064145
-0.0626992
-0.0612533
-0.0612533
-0.0598075
-0.0598075
-0.0598075
-0.0598075
-0.0583616
-0.0569158
-0.0554699
-0.0540241
-0.0540241
-0.0540241
-0.0525782
-0.0525782
-0.0511324
-0.0511324
-0.0511324
-0.0511324
-0.0525782
-0.0525782
-0.0540241
-0.0540241
-0.0540241
-0.0554699
-0.0554699
-0.0554699
-0.0554699
-0.0569158
-0.0583616
-0.0598075
-0.0598075
-0.0612533
-0.064145
-0.0684826
-0.0728201
-0.0757118
-0.0742659
-0.0728201
-0.0699284
-0.0670367
-0.0626992
-0.0598075
-0.0554699
-0.0511324
-0.0467948
-0.0424573
-0.0381197
-0.0323363
-0.0279988
-0.0265529
-0.0236612
-0.0222154
-0.0207695
-0.0193237
-0.0178778
-0.016432
-0.0149861
-0.0135403
-0.0120944
-0.0120944
-0.0120944
-0.0120944
-0.0120944
-0.0135403
-0.0149861
-0.016432
-0.0178778
-0.0207695
-0.0222154
-0.0236612
-0.0265529
-0.0279988
-0.0294446
-0.0308905
-0.0323363
-0.0366739
-0.045349
-0.0540241
-0.0598075
-0.064145
-0.0670367
-0.0684826
-0.0684826
-0.0655909
-0.0626992
-0.0583616
-0.0540241
-0.0482407
-0.0439031
-0.0439031
-0.0496865
-0.0554699
-0.064145
-0.0742659
-0.0742659
-0.0655909
-0.0395656
0.0139309
0.0934526
0.194662
0.314667
0.450577
0.58215
0.689142
0.725289
0.654442
0.466482
0.203337
-0.0771576
-0.30271
-0.39669
-0.40392
-0.338856
-0.252105
-0.18415
-0.130654
-0.0945078
-0.0540241
-0.0395656
-0.0366739
-0.035228
-0.0337822
-0.0323363
-0.0294446
-0.0265529
-0.0222154
-0.0193237
-0.016432
-0.0149861
-0.0135403
-0.0120944
-0.0120944
-0.0120944
-0.0120944
-0.00920273
-0.00775688
-0.00486519
-0.00341934
-0.00197349
-0.000527639
0.000918211
0.00236406
0.00380991
0.00670161
0.00959331
0.0139309
0.0211601
0.0298352
0.0399561
0.0486312
0.0573063
0.0674273
0.0761024
0.0833316
0.089115
0.0934526
0.0977901
0.100682
0.105019
0.109357
0.11514
0.120924
0.126707
0.13249
0.13972
0.146949
0.152732
0.155624
0.158516
0.162853
0.167191
0.170083
0.170083
0.165745
0.158516
0.151287
0.142611
0.13249
0.12237
0.112249
0.100682
0.0876692
0.0746565
0.0587522
0.0399561
0.0254976
0.0110392
-0.00341934
-0.0120944
-0.0265529
-0.0467948
-0.0540241
-0.0569158
-0.0583616
-0.0612533
-0.064145
-0.0655909
-0.0670367
-0.0684826
-0.0699284
-0.0699284
-0.0713742
-0.0713742
-0.0713742
-0.0713742
-0.0713742
-0.0699284
-0.0699284
-0.0699284
-0.0699284
-0.0684826
-0.0684826
-0.0670367
-0.0655909
-0.064145
-0.0626992
-0.0612533
-0.0612533
-0.0598075
-0.0583616
-0.0569158
-0.0554699
-0.0554699
-0.0540241
-0.0511324
-0.0496865
-0.0482407
-0.0467948
-0.0467948
-0.0482407
-0.0496865
-0.0511324
-0.0525782
-0.0540241
-0.0583616
-0.0612533
-0.0598075
-0.0554699
-0.0482407
-0.0439031
-0.0410114
-0.0366739
-0.0337822
-0.0323363
-0.0323363
-0.035228
-0.0381197
-0.0439031
-0.0467948
-0.0482407
-0.0496865
-0.0511324
-0.0540241
-0.0554699
-0.0583616
-0.0598075
-0.0612533
-0.0612533
-0.0626992
-0.064145
-0.064145
-0.064145
-0.064145
-0.0626992
-0.0626992
-0.0612533
-0.0598075
-0.0583616
-0.0569158
-0.0554699
-0.0525782
-0.0511324
-0.0482407
-0.0467948
-0.045349
-0.0424573
-0.0366739
-0.0294446
-0.0222154
-0.016432
-0.0120944
-0.00920273
-0.00631104
-0.00341934
-0.00197349
0.000918211
0.000918211
-0.00197349
-0.00486519
-0.0106486
-0.0135403
-0.0193237
-0.0251071
-0.0337822
-0.0439031
-0.0496865
-0.0540241
-0.0569158
-0.0583616
-0.0598075
-0.0612533
-0.0612533
-0.0626992
-0.0626992
-0.064145
-0.0655909
-0.0670367
-0.0684826
-0.0699284
-0.0713742
-0.0728201
-0.0757118
-0.0771576
-0.0800493
-0.082941
-0.0887244
-0.100291
-0.101737
-0.0916161
-0.0670367
-0.0135403
0.0573063
0.149841
0.265509
0.411539
0.570583
0.707938
0.778785
0.748422
0.592271
0.332018
0.0269435
-0.246322
-0.424161
-0.47332
-0.405365
-0.286806
-0.182705
-0.10752
-0.0699284
-0.0569158
-0.0554699
-0.064145
-0.0786035
-0.0973995
-0.111858
-0.123425
-0.123425
-0.113304
-0.0988454
-0.0771576
-0.0626992
-0.0554699
-0.0511324
-0.0467948
-0.0439031
-0.0424573
-0.0395656
-0.0366739
-0.035228
-0.0337822
-0.0308905
-0.0294446
-0.0265529
-0.0251071
-0.0222154
-0.0207695
-0.0178778
-0.0135403
-0.0106486
-0.00341934
0.00525576
0.0153767
0.0226059
0.0298352
0.0356186
0.041402
0.0457395
0.0486312
0.0573063
0.0746565
0.0905609
0.099236
0.107911
0.116586
0.12237
0.128153
0.13249
0.136828
0.144057
0.149841
0.154178
0.159962
0.164299
0.168637
0.170083
0.168637
0.167191
0.162853
0.15707
0.146949
0.128153
0.110803
0.0934526
0.0818858
0.0732107
0.0659814
0.0573063
0.0442937
0.0269435
0.00959331
-0.0106486
-0.0236612
-0.0337822
-0.0395656
-0.045349
-0.0496865
-0.0525782
-0.0540241
-0.0554699
-0.0569158
-0.0569158
-0.0583616
-0.0598075
-0.0598075
-0.0598075
-0.0598075
-0.0598075
-0.0598075
-0.0612533
-0.0612533
-0.0598075
-0.0598075
-0.0583616
-0.0583616
-0.0598075
-0.0598075
-0.0598075
-0.0598075
-0.0583616
-0.0583616
-0.0569158
-0.0583616
-0.0583616
-0.0583616
-0.0569158
-0.0569158
-0.0569158
-0.0583616
-0.0598075
-0.0598075
-0.0583616
-0.0554699
-0.0511324
-0.0439031
-0.035228
-0.0308905
-0.0279988
-0.0251071
-0.0236612
-0.0251071
-0.0294446
-0.035228
-0.0381197
-0.0410114
-0.0439031
-0.045349
-0.0482407
-0.0511324
-0.0540241
-0.0569158
-0.0583616
-0.0598075
-0.0626992
-0.064145
-0.0655909
-0.0670367
-0.0684826
-0.0699284
-0.0713742
-0.0728201
-0.0728201
-0.0728201
-0.0728201
-0.0699284
-0.0684826
-0.0655909
-0.0626992
-0.0598075
-0.0569158
-0.0540241
-0.0511324
-0.0482407
-0.045349
-0.0424573
-0.0395656
-0.0366739
-0.0323363
-0.0294446
-0.0265529
-0.0222154
-0.016432
-0.00920273
-0.000527639
0.00380991
0.00814746
0.0139309
0.0197143
0.0197143
0.0110392
-0.000527639
-0.016432
-0.0308905
-0.0410114
-0.0583616
-0.0713742
-0.0800493
-0.0872786
-0.0872786
-0.0814952
-0.0757118
-0.0713742
-0.0670367
-0.064145
-0.0612533
-0.0583616
-0.0569158
-0.0554699
-0.0540241
-0.0540241
-0.0554699
-0.0554699
-0.0583616
-0.0612533
-0.064145
-0.0684826
-0.0742659
-0.0872786
-0.113304
-0.1321
-0.145113
-0.145113
-0.130654
-0.0901703
-0.0178778
0.0833316
0.212012
0.366718
0.54022
0.707938
0.835173
0.871319
0.784568
0.567691
0.258279
-0.0655909
-0.328735
-0.431391
-0.432837
-0.333073
-0.207284
-0.121979
-0.10752
-0.104629
-0.101737
-0.0959537
-0.0916161
-0.0887244
-0.0858327
-0.082941
-0.0800493
-0.0786035
-0.0757118
-0.0728201
-0.0713742
-0.0670367
-0.064145
-0.0583616
-0.0540241
-0.0482407
-0.0424573
-0.0366739
-0.0308905
-0.0251071
-0.0178778
-0.0106486
-0.00341934
0.00525576
0.00959331
0.012485
0.0153767
0.0168226
0.0182684
0.0211601
0.0240518
0.0254976
0.0283893
0.031281
0.0341727
0.0385103
0.0442937
0.0544146
0.0645356
0.0746565
0.0920067
0.112249
0.126707
0.135382
0.144057
0.149841
0.154178
0.15707
0.158516
0.159962
0.162853
0.162853
0.164299
0.164299
0.164299
0.162853
0.161407
0.158516
0.155624
0.151287
0.146949
0.141166
0.131045
0.12237
0.11514
0.106465
0.0948984
0.0833316
0.0674273
0.0486312
0.0283893
0.00814746
-0.00631104
-0.0149861
-0.0251071
-0.035228
-0.0424573
-0.0482407
-0.0525782
-0.0554699
-0.0583616
-0.0612533
-0.064145
-0.0655909
-0.0670367
-0.0684826
-0.0699284
-0.0713742
-0.0728201
-0.0742659
-0.0771576
-0.0771576
-0.0771576
-0.0742659
-0.0684826
-0.064145
-0.0612533
-0.0583616
-0.0554699
-0.0540241
-0.0511324
-0.0482407
-0.0467948
-0.0439031
-0.0424573
-0.0395656
-0.0381197
-0.0366739
-0.035228
-0.035228
-0.035228
-0.035228
-0.035228
-0.0366739
-0.0366739
-0.035228
-0.035228
-0.0337822
-0.0337822
-0.0323363
-0.0279988
-0.0279988
-0.0337822
-0.0381197
-0.0410114
-0.0439031
-0.0467948
-0.0496865
-0.0511324
-0.0511324
-0.0525782
-0.0525782
-0.0511324
-0.0511324
-0.0496865
-0.0467948
-0.045349
-0.0467948
-0.0482407
-0.0496865
-0.0511324
-0.0511324
-0.0511324
-0.0511324
-0.0496865
-0.0482407
-0.0467948
-0.0467948
-0.0439031
-0.0424573
-0.0410114
-0.0381197
-0.0366739
-0.0337822
-0.0308905
-0.0279988
-0.0251071
-0.0207695
-0.0178778
-0.0135403
-0.00920273
-0.00341934
0.000918211
0.00236406
0.00236406
0.00380991
0.00525576
0.00814746
0.00959331
0.00959331
0.00525576
-0.00197349
-0.00920273
-0.016432
-0.0251071
-0.035228
-0.0410114
-0.0467948
-0.0511324
-0.0569158
-0.0598075
-0.0626992
-0.0655909
-0.0670367
-0.0684826
-0.0713742
-0.0742659
-0.0771576
-0.0786035
-0.0786035
-0.0786035
-0.0771576
-0.0757118
-0.0742659
-0.0713742
-0.0699284
-0.0684826
-0.0655909
-0.0626992
-0.0612533
-0.0598075
-0.0554699
-0.0511324
-0.0323363
0.0370644
0.145503
0.288642
0.462144
0.641429
0.788906
0.848186
0.784568
0.595162
0.31033
-0.00341934
-0.272347
-0.409703
-0.422716
-0.351869
-0.224634
-0.120533
-0.0814952
-0.0670367
-0.0670367
-0.0742659
-0.0800493
-0.0843869
-0.0872786
-0.0901703
-0.0901703
-0.0887244
-0.0843869
-0.0786035
-0.0742659
-0.0699284
-0.0655909
-0.0626992
-0.0569158
-0.0525782
-0.0496865
-0.0467948
-0.0439031
-0.0395656
-0.0337822
-0.0251071
-0.0120944
0.000918211
0.00814746
0.0110392
0.0139309
0.0168226
0.0182684
0.0211601
0.0226059
0.0254976
0.0269435
0.0283893
0.0298352
0.0327269
0.0341727
0.0370644
0.041402
0.0500771
0.0587522
0.0674273
0.0818858
0.105019
0.12237
0.13249
0.13972
0.142611
0.144057
0.145503
0.145503
0.146949
0.146949
0.146949
0.148395
0.148395
0.148395
0.148395
0.148395
0.146949
0.145503
0.142611
0.138274
0.133936
0.126707
0.107911
0.0847775
0.0645356
0.0442937
0.0211601
0.00236406
-0.0120944
-0.0251071
-0.0439031
-0.0670367
-0.0800493
-0.0872786
-0.0916161
-0.0959537
-0.0973995
-0.0973995
-0.0945078
-0.0916161
-0.0872786
-0.0843869
-0.0814952
-0.0800493
-0.0771576
-0.0742659
-0.0713742
-0.0699284
-0.0699284
-0.0684826
-0.0684826
-0.0684826
-0.0684826
-0.0684826
-0.0699284
-0.0713742
-0.0728201
-0.0728201
-0.0742659
-0.0742659
-0.0771576
-0.0786035
-0.0786035
-0.0728201
-0.0655909
-0.0612533
-0.0569158
-0.0540241
-0.0511324
-0.0482407
-0.045349
-0.0439031
-0.0424573
-0.0410114
-0.0410114
-0.0410114
-0.0424573
-0.0410114
-0.0410114
-0.0395656
-0.0395656
-0.0381197
-0.0395656
-0.0439031
-0.0482407
-0.0511324
-0.0540241
-0.0583616
-0.0612533
-0.0626992
-0.0612533
-0.0598075
-0.0569158
-0.0540241
-0.0525782
-0.0511324
-0.0496865
-0.0467948
-0.0439031
-0.0424573
-0.0410114
-0.0381197
-0.0366739
-0.035228
-0.0337822
-0.0323363
-0.0308905
-0.0294446
-0.0279988
-0.0279988
-0.0265529
-0.0236612
-0.0222154
-0.0193237
-0.016432
-0.0135403
-0.0106486
-0.00631104
-0.000527639
0.00814746
0.0226059
0.0269435
0.031281
0.0341727
0.0370644
0.0341727
0.0269435
0.0153767
-0.00341934
-0.0178778
-0.0279988
-0.0323363
-0.035228
-0.0366739
-0.0381197
-0.0395656
-0.0395656
-0.0410114
-0.0410114
-0.0424573
-0.0439031
-0.045349
-0.0467948
-0.0496865
-0.0554699
-0.0540241
-0.0439031
-0.0381197
-0.0323363
-0.0265529
-0.0236612
-0.0236612
-0.0279988
-0.035228
-0.0424573
-0.0511324
-0.064145
-0.0655909
-0.0569158
-0.0323363
0.0254976
0.116586
0.249604
0.418769
0.596608
0.73541
0.790352
0.732518
0.554678
0.281413
-0.00920273
-0.237647
-0.340302
-0.347531
-0.283914
-0.188488
-0.119087
-0.0887244
-0.0800493
-0.0742659
-0.0684826
-0.064145
-0.0612533
-0.0583616
-0.0554699
-0.0525782
-0.0511324
-0.0482407
-0.045349
-0.0424573
-0.0395656
-0.0366739
-0.0323363
-0.0265529
-0.0193237
-0.0135403
-0.00775688
-0.00197349
0.000918211
0.00380991
0.00525576
0.00814746
0.00959331
0.0110392
0.012485
0.0153767
0.0168226
0.0182684
0.0197143
0.0226059
0.0254976
0.0283893
0.0356186
0.0471854
0.0558605
0.0616439
0.0674273
0.0761024
0.0847775
0.099236
0.120924
0.135382
0.141166
0.145503
0.149841
0.152732
0.154178
0.155624
0.15707
0.158516
0.159962
0.161407
0.164299
0.165745
0.167191
0.167191
0.164299
0.158516
0.152732
0.144057
0.129599
0.118032
0.102128
0.0789941
0.0587522
0.0457395
0.0370644
0.031281
0.0211601
0.00380991
-0.0178778
-0.035228
-0.0439031
-0.0467948
-0.0496865
-0.0525782
-0.0540241
-0.0569158
-0.0598075
-0.0626992
-0.0655909
-0.0699284
-0.0742659
-0.0814952
-0.093062
-0.0973995
-0.100291
-0.101737
-0.103183
-0.104629
-0.103183
-0.0973995
-0.0916161
-0.0872786
-0.082941
-0.0800493
-0.0757118
-0.0728201
-0.0684826
-0.0655909
-0.0612533
-0.0569158
-0.0511324
-0.0439031
-0.0381197
-0.0381197
-0.045349
-0.0525782
-0.0583616
-0.064145
-0.0684826
-0.0728201
-0.0742659
-0.0728201
-0.0670367
-0.0598075
-0.0540241
-0.0511324
-0.0467948
-0.0439031
-0.0395656
-0.035228
-0.0323363
-0.0308905
-0.0294446
-0.0294446
-0.0308905
-0.0308905
-0.0323363
-0.0337822
-0.035228
-0.0366739
-0.0395656
-0.0410114
-0.0424573
-0.045349
-0.0482407
-0.0511324
-0.0525782
-0.0554699